-29,-29,-29,-29,-29,-29,-29,-29,-24,-27,-29,-30,-32,-31,-32,-35,-36,-37,-34,-31,-35,-36,-38,-36,-31,-27,-31,-38,-41,-47,-45,-49,-50,-52,-55,-55,-55,-53,-51,-53,-55,-58,-58,-58,-58,-57,-59,-61,-57,-55,-55,-56,-57,-61,-58,-60,-56,-58,-60,-63,-64,-67,-72,-77,-77,-81,-91,-97,-97,-85,-66,-44,-14,24,75,124,156,168,153,104,34,-33,-73,-87,-85,-74,-66,-65,-67,-69,-66,-65,-63,-62,-64,-67,-68,-65,-69,-67,-66,-67,-66,-65,-66,-66,-69,-71,-67,-65,-61,-64,-64,-66,-68,-67,-68,-69,-71,-71,-68,-66,-66,-66,-68,-70,-65,-65,-66,-66,-67,-67,-68,-66,-68,-70,-71,-70,-69,-66,-64,-67,-66,-69,-66,-67,-67,-69,-69,-71,-68,-68,-67,-66,-70,-70,-69,-67,-67,-67,-70,-71,-71,-69,-69,-67,-70,-72,-72,-72,-73,-72,-74,-77,-74,-72,-71,-72,-75,-75,-73,-73,-72,-72,-73,-74,-71,-66,-65,-65,-67,-68,-63,-60,-60,-58,-59,-58,-57,-55,-51,-50,-50,-53,-51,-49,-46,-49,-49,-51,-51,-48,-50,-51,-49,-51,-50,-50,-53,-52,-52,-53,-54,-53,-52,-55,-56,-58,-55,-54,-52,-56,-56,-57,-55,-55,-53,-54,-57,-58,-56,-55,-57,-56,-60,-60,-61,-59,-60,-62,-62,-61,-59,-57,-57,-58,-59,-62,-58,-59,-60,-61,-62,-65,-62,-60,-58,-62,-65,-66,-63,-60,-61,-62,-64,-66,-65,-63,-62,-61,-61,-62,-60,-61,-58,-60,-60,-61,-61,-58,-56,-59,-61,-63,-61,-59,-58,-56,-54,-55,-55,-54,-50,-50,-51,-45,-44,-41,-40,-41,-43,-46,-44,-45,-45,-45,-46,-47,-48,-47,-44,-42,-41,-49,-57,-57,-60,-62,-66,-66,-65,-63,-64,-63,-65,-68,-69,-68,-68,-70,-69,-71,-66,-67,-66,-64,-69,-71,-68,-66,-65,-66,-70,-73,-72,-76,-85,-89,-95,-102,-107,-101,-83,-60,-32,-3,47,98,144,175,188,181,151,98,33,-22,-54,-78,-90,-95,-91,-85,-78,-78,-77,-78,-76,-76,-76,-79,-77,-77,-77,-75,-79,-82,-82,-80,-79,-78,-81,-79,-77,-75,-78,-78,-81,-82,-82,-78,-78,-79,-81,-83,-80,-82,-81,-82,-83,-82,-80,-80,-79,-78,-81,-82,-78,-78,-77,-77,-82,-81,-79,-78,-75,-78,-79,-82,-80,-78,-78,-77,-81,-83,-83,-80,-79,-81,-83,-84,-84,-82,-83,-85,-84,-87,-86,-86,-84,-86,-90,-91,-90,-87,-89,-90,-91,-94,-92,-91,-90,-91,-94,-95,-92,-90,-89,-88,-87,-88,-82,-79,-74,-73,-72,-73,-68,-65,-63,-64,-66,-66,-64,-62,-60,-60,-64,-64,-63,-61,-61,-59,-64,-66,-61,-62,-60,-60,-64,-65,-62,-61,-63,-61,-63,-63,-62,-59,-58,-61,-62,-64,-63,-60,-63,-63,-63,-66,-63,-64,-63,-65,-67,-68,-67,-67,-66,-65,-69,-70,-69,-67,-66,-66,-69,-69,-69,-64,-66,-67,-68,-71,-67,-66,-66,-67,-71,-72,-71,-70,-68,-69,-69,-69,-69,-66,-66,-67,-69,-70,-70,-68,-66,-69,-69,-71,-70,-68,-66,-68,-68,-68,-66,-67,-66,-67,-69,-69,-68,-66,-63,-59,-60,-59,-57,-55,-53,-53,-53,-51,-50,-48,-45,-43,-48,-49,-48,-49,-47,-49,-50,-55,-55,-53,-50,-45,-44,-46,-53,-54,-56,-57,-61,-64,-68,-66,-67,-67,-71,-74,-72,-69,-70,-71,-73,-75,-76,-74,-73,-73,-76,-77,-76,-75,-71,-74,-78,-81,-82,-87,-93,-98,-104,-111,-114,-105,-81,-50,-18,24,82,138,177,192,170,104,10,-64,-100,-101,-89,-83,-79,-78,-79,-78,-79,-81,-79,-81,-78,-79,-79,-82,-81,-80,-80,-83,-81,-84,-83,-81,-81,-84,-84,-87,-84,-82,-82,-81,-85,-86,-84,-83,-82,-82,-85,-84,-80,-79,-80,-80,-79,-83,-81,-78,-80,-80,-83,-85,-85,-83,-83,-82,-85,-85,-84,-83,-80,-80,-82,-85,-82,-81,-79,-80,-80,-81,-77,-80,-78,-78,-80,-83,-81,-81,-82,-83,-84,-84,-85,-83,-83,-82,-87,-86,-87,-84,-84,-84,-84,-85,-85,-83,-79,-79,-78,-75,-72,-68,-67,-66,-67,-67,-65,-64,-61,-61,-63,-62,-61,-60,-60,-60,-62,-62,-62,-63,-60,-61,-63,-64,-65,-62,-61,-61,-64,-65,-61,-62,-59,-62,-65,-66,-64,-64,-64,-65,-70,-70,-68,-67,-66,-67,-68,-72,-70,-70,-71,-72,-71,-73,-71,-70,-68,-71,-70,-73,-73,-70,-71,-70,-74,-76,-74,-72,-73,-72,-73,-76,-74,-73,-70,-70,-70,-74,-73,-69,-69,-68,-71,-73,-72,-71,-71,-71,-75,-77,-71,-72,-71,-72,-72,-74,-72,-69,-71,-69,-69,-69,-68,-62,-61,-61,-62,-61,-58,-57,-55,-56,-56,-55,-53,-51,-49,-52,-53,-55,-56,-53,-54,-55,-56,-55,-56,-55,-53,-51,-48,-52,-56,-62,-62,-69,-72,-76,-77,-76,-74,-75,-77,-78,-79,-77,-77,-77,-79,-81,-80,-75,-75,-78,-79,-83,-81,-80,-78,-81,-85,-92,-95,-101,-102,-105,-108,-120,-129,-126,-115,-99,-77,-54,-23,18,74,127,162,172,154,95,13,-61,-100,-104,-95,-82,-78,-78,-80,-82,-81,-77,-78,-79,-81,-82,-81,-80,-78,-79,-82,-83,-82,-79,-81,-82,-81,-81,-82,-78,-77,-78,-79,-80,-80,-80,-79,-79,-81,-81,-80,-79,-77,-75,-77,-79,-78,-77,-75,-77,-79,-79,-77,-75,-75,-77,-79,-78,-78,-73,-75,-77,-79,-76,-77,-75,-76,-78,-76,-75,-75,-75,-75,-76,-78,-78,-73,-74,-75,-77,-78,-78,-75,-73,-77,-76,-78,-75,-75,-73,-74,-77,-79,-77,-77,-74,-73,-74,-75,-70,-67,-64,-63,-64,-65,-63,-59,-57,-60,-59,-57,-57,-56,-54,-56,-58,-59,-59,-58,-56,-58,-59,-62,-59,-57,-56,-55,-59,-61,-60,-59,-59,-57,-60,-61,-60,-59,-60,-61,-63,-62,-63,-59,-60,-62,-66,-68,-66,-64,-64,-63,-65,-67,-66,-63,-64,-64,-66,-69,-68,-67,-66,-67,-69,-70,-69,-68,-67,-67,-66,-67,-68,-67,-64,-68,-68,-70,-73,-72,-69,-69,-70,-70,-70,-68,-68,-69,-69,-76,-72,-72,-69,-69,-70,-71,-69,-66,-66,-67,-67,-68,-66,-64,-58,-58,-60,-61,-57,-56,-55,-56,-55,-54,-53,-50,-46,-49,-48,-51,-51,-49,-47,-51,-53,-52,-51,-54,-53,-56,-51,-50,-49,-53,-56,-60,-63,-65,-67,-69,-66,-67,-69,-72,-70,-68,-67,-69,-72,-73,-75,-74,-73,-73,-76,-75,-75,-73,-74,-72,-74,-76,-73,-72,-70,-71,-74,-77,-79,-86,-89,-97,-103,-113,-111,-95,-71,-44,-11,37,95,141,164,156,107,29,-40,-84,-100,-96,-90,-82,-80,-78,-78,-80,-81,-85,-85,-81,-79,-81,-81,-83,-81,-77,-78,-79,-79,-79,-79,-77,-78,-78,-80,-85,-82,-80,-79,-80,-81,-85,-83,-81,-81,-81,-82,-83,-81,-84,-81,-82,-82,-84,-83,-81,-79,-79,-79,-80,-79,-79,-81,-81,-84,-87,-83,-81,-79,-78,-83,-81,-81,-80,-79,-79,-81,-84,-83,-80,-79,-80,-81,-85,-85,-85,-84,-85,-90,-89,-90,-87,-89,-94,-91,-92,-88,-87,-85,-86,-89,-90,-89,-86,-84,-82,-85,-84,-81,-76,-74,-73,-73,-73,-69,-66,-63,-61,-61,-64,-62,-62,-61,-62,-63,-64,-63,-61,-61,-59,-62,-64,-62,-63,-59,-60,-61,-60,-57,-56,-58,-59,-61,-65,-61,-60,-60,-63,-65,-67,-65,-63,-64,-67,-66,-68,-65,-65,-64,-63,-67,-67,-69,-67,-65,-66,-63,-67,-66,-66,-66,-66,-67,-68,-66,-64,-63,-65,-67,-71,-69,-68,-67,-64,-65,-70,-66,-63,-63,-66,-66,-67,-67,-66,-66,-66,-68,-68,-68,-65,-65,-65,-69,-70,-68,-66,-64,-62,-61,-61,-55,-54,-51,-52,-53,-52,-50,-47,-47,-44,-47,-47,-44,-46,-45,-47,-49,-51,-48,-46,-46,-50,-51,-50,-46,-41,-39,-42,-46,-54,-54,-57,-57,-62,-66,-68,-68,-69,-70,-70,-68,-71,-69,-68,-68,-69,-71,-74,-71,-74,-69,-68,-72,-76,-72,-69,-70,-70,-71,-76,-78,-79,-85,-91,-95,-102,-109,-108,-99,-81,-59,-32,8,63,119,160,177,159,104,26,-43,-85,-100,-98,-90,-80,-78,-79,-79,-80,-78,-76,-77,-77,-80,-82,-82,-78,-78,-81,-81,-83,-82,-79,-79,-80,-83,-83,-83,-80,-78,-78,-82,-83,-81,-79,-79,-79,-81,-82,-82,-80,-78,-79,-82,-85,-83,-81,-82,-81,-83,-85,-85,-82,-79,-78,-80,-82,-82,-80,-78,-82,-84,-84,-83,-83,-81,-84,-83,-85,-82,-80,-81,-80,-80,-82,-80,-79,-79,-81,-82,-85,-85,-82,-82,-84,-86,-89,-88,-87,-86,-86,-90,-89,-89,-87,-87,-89,-88,-90,-86,-86,-83,-80,-80,-77,-73,-67,-66,-65,-66,-66,-62,-59,-57,-58,-58,-62,-59,-57,-56,-60,-58,-59,-58,-56,-55,-55,-58,-58,-57,-54,-54,-54,-55,-58,-57,-55,-55,-58,-59,-61,-59,-59,-57,-58,-60,-61,-62,-59,-60,-61,-62,-65,-65,-63,-62,-63,-63,-65,-64,-62,-64,-63,-66,-66,-64,-62,-62,-62,-66,-67,-66,-64,-65,-65,-66,-67,-66,-65,-65,-64,-65,-66,-65,-63,-61,-65,-63,-67,-66,-62,-64,-66,-66,-67,-66,-66,-64,-64,-66,-66,-65,-63,-63,-63,-66,-66,-64,-63,-61,-61,-59,-63,-60,-55,-51,-51,-52,-53,-51,-47,-46,-45,-44,-44,-43,-40,-41,-41,-45,-47,-48,-46,-43,-48,-48,-50,-47,-42,-40,-44,-51,-55,-57,-60,-61,-64,-66,-65,-64,-66,-66,-67,-68,-69,-68,-67,-64,-65,-67,-69,-69,-69,-67,-68,-69,-71,-68,-68,-68,-68,-69,-71,-73,-74,-81,-89,-96,-99,-104,-107,-101,-83,-56,-27,13,60,116,162,189,184,155,89,4,-59,-89,-94,-85,-76,-72,-72,-74,-76,-76,-75,-74,-73,-74,-77,-77,-75,-74,-74,-77,-79,-77,-77,-78,-77,-79,-82,-80,-79,-76,-79,-79,-80,-80,-79,-78,-78,-79,-81,-78,-77,-75,-75,-76,-78,-77,-74,-74,-74,-75,-77,-74,-78,-75,-74,-76,-78,-78,-77,-75,-75,-77,-79,-78,-77,-75,-76,-77,-78,-76,-76,-74,-74,-73,-78,-73,-73,-72,-75,-76,-80,-78,-75,-75,-74,-77,-78,-78,-78,-78,-75,-77,-79,-76,-74,-75,-75,-78,-81,-75,-74,-72,-75,-77,-76,-74,-72,-69,-69,-66,-66,-63,-62,-59,-57,-57,-59,-56,-54,-56,-56,-56,-58,-58,-56,-55,-56,-57,-58,-58,-56,-56,-57,-58,-60,-59,-57,-56,-57,-57,-59,-57,-56,-55,-56,-58,-62,-61,-57,-54,-54,-55,-57,-57,-54,-53,-53,-53,-56,-53,-49,-47,-47,-50,-50,-49,-43,-44,-49,-51,-46,-41,-42,-44,-46,-48,-48,-49,-50,-54,-57,-63,-64,-64,-62,-66,-68,-69,-72,-73,-72,-70,-71,-75,-77,-75,-74,-73,-73,-74,-76,-72,-70,-71,-71,-70,-73,-70,-70,-68,-71,-70,-75,-73,-75,-80,-86,-95,-104,-104,-110,-114,-108,-89,-61,-28,5,52,102,147,169,175,147,80,-5,-67,-96,-94,-83,-75,-73,-77,-80,-76,-78,-75,-77,-79,-81,-78,-76,-77,-77,-79,-80,-81,-80,-78,-78,-79,-80,-78,-77,-78,-77,-82,-84,-81,-82,-78,-78,-78,-80,-80,-78,-75,-76,-79,-80,-78,-80,-78,-79,-82,-83,-81,-77,-77,-76,-80,-80,-79,-78,-76,-75,-79,-79,-77,-76,-75,-77,-78,-80,-80,-77,-76,-79,-78,-80,-79,-77,-76,-77,-79,-81,-80,-78,-76,-76,-77,-81,-79,-80,-78,-80,-81,-85,-84,-81,-80,-81,-81,-83,-80,-78,-76,-77,-79,-81,-78,-74,-74,-74,-77,-74,-71,-69,-68,-67,-68,-71,-67,-65,-62,-61,-61,-64,-63,-62,-61,-61,-66,-65,-69,-65,-63,-63,-61,-62,-62,-60,-61,-61,-63,-64,-65,-63,-61,-63,-65,-65,-66,-63,-63,-62,-66,-68,-67,-66,-69,-71,-73,-74,-69,-68,-68,-69,-72,-73,-72,-72,-69,-71,-73,-70,-72,-70,-68,-69,-71,-74,-70,-70,-70,-69,-70,-71,-72,-69,-71,-70,-72,-74,-71,-71,-70,-71,-72,-78,-77,-72,-72,-74,-74,-78,-75,-74,-70,-68,-69,-72,-72,-70,-70,-67,-72,-73,-73,-72,-72,-73,-75,-77,-77,-73,-74,-75,-74,-75,-73,-71,-71,-72,-73,-74,-72,-70,-68,-69,-68,-70,-69,-70,-72,-70,-72,-74,-72,-72,-71,-72,-75,-75,-74,-70,-71,-72,-73,-75,-74,-73,-72,-71,-72,-72,-70,-68,-69,-69,-71,-72,-72,-73,-69,-71,-70,-72,-71,-72,-69,-67,-66,-66,-62,-61,-60,-61,-59,-61,-57,-55,-53,-51,-51,-52,-53,-51,-51,-52,-56,-58,-56,-54,-51,-55,-58,-64,-60,-59,-54,-53,-54,-57,-60,-62,-63,-64,-70,-74,-73,-73,-73,-74,-74,-74,-76,-72,-75,-75,-80,-84,-81,-80,-77,-76,-80,-83,-81,-79,-79,-79,-82,-86,-88,-91,-98,-97,-104,-114,-115,-105,-84,-61,-38,-4,44,97,143,169,177,158,112,45,-14,-57,-85,-100,-110,-107,-100,-93,-90,-90,-87,-84,-82,-82,-83,-84,-85,-84,-86,-86,-88,-90,-90,-86,-86,-86,-89,-89,-88,-85,-86,-86,-85,-89,-89,-86,-87,-87,-89,-89,-87,-86,-85,-86,-86,-88,-84,-86,-85,-86,-88,-88,-86,-86,-83,-85,-86,-91,-89,-89,-86,-86,-88,-88,-87,-86,-83,-83,-85,-85,-84,-81,-81,-83,-83,-85,-86,-81,-81,-81,-81,-86,-83,-82,-83,-86,-89,-93,-92,-90,-91,-92,-93,-97,-99,-95,-98,-100,-99,-103,-100,-97,-98,-97,-100,-100,-98,-96,-92,-92,-94,-93,-88,-86,-85,-82,-82,-80,-78,-76,-71,-70,-71,-70,-68,-66,-65,-61,-64,-63,-61,-60,-61,-61,-62,-66,-62,-63,-63,-64,-65,-65,-65,-62,-62,-63,-65,-66,-65,-65,-63,-64,-66,-67,-66,-63,-64,-64,-67,-67,-65,-65,-64,-64,-65,-70,-69,-69,-67,-69,-71,-71,-71,-69,-67,-67,-69,-71,-68,-67,-66,-67,-69,-70,-70,-68,-67,-66,-72,-71,-69,-67,-69,-70,-72,-76,-74,-69,-69,-70,-71,-73,-72,-69,-69,-70,-72,-72,-70,-71,-68,-69,-71,-71,-71,-68,-68,-69,-73,-74,-70,-66,-64,-63,-59,-61,-59,-60,-57,-55,-52,-55,-53,-52,-50,-49,-51,-53,-52,-52,-50,-52,-56,-56,-55,-57,-56,-51,-49,-49,-52,-57,-58,-60,-64,-67,-71,-70,-71,-71,-75,-77,-76,-72,-70,-72,-73,-74,-74,-73,-72,-73,-74,-77,-77,-73,-72,-76,-77,-79,-79,-77,-76,-79,-85,-93,-100,-103,-106,-112,-117,-106,-82,-51,-21,21,71,120,162,178,166,116,37,-41,-90,-105,-99,-93,-87,-83,-83,-83,-80,-79,-81,-85,-87,-83,-83,-83,-83,-86,-84,-82,-81,-84,-82,-84,-80,-79,-77,-80,-80,-80,-80,-79,-80,-80,-80,-82,-79,-82,-80,-79,-81,-82,-83,-81,-80,-79,-81,-83,-81,-83,-82,-81,-81,-82,-81,-80,-79,-81,-81,-80,-79,-78,-79,-78,-79,-84,-83,-81,-80,-80,-83,-84,-82,-79,-80,-81,-83,-87,-83,-83,-80,-81,-84,-86,-85,-82,-82,-81,-83,-85,-85,-84,-82,-82,-84,-86,-85,-84,-81,-83,-82,-82,-77,-74,-72,-70,-70,-70,-67,-64,-61,-63,-63,-64,-61,-61,-59,-58,-59,-59,-57,-57,-54,-56,-56,-59,-56,-57,-55,-57,-59,-61,-59,-57,-57,-58,-60,-62,-59,-60,-58,-57,-61,-62,-60,-59,-61,-60,-61,-64,-64,-62,-60,-62,-64,-68,-66,-62,-63,-65,-65,-69,-66,-64,-64,-67,-67,-71,-68,-64,-63,-66,-68,-68,-70,-66,-66,-68,-70,-71,-69,-67,-67,-68,-68,-69,-67,-67,-65,-65,-67,-68,-68,-64,-63,-64,-67,-67,-64,-65,-63,-64,-64,-69,-67,-64,-62,-64,-64,-68,-66,-64,-62,-62,-62,-59,-56,-51,-50,-50,-51,-52,-48,-44,-46,-46,-43,-44,-45,-46,-46,-47,-49,-51,-48,-47,-49,-47,-46,-44,-39,-44,-49,-52,-54,-58,-60,-61,-61,-64,-66,-70,-70,-67,-67,-67,-68,-70,-70,-69,-67,-69,-71,-74,-70,-69,-67,-67,-67,-71,-71,-69,-71,-79,-90,-96,-101,-105,-109,-100,-79,-51,-14,29,85,137,175,185,159,94,4,-65,-94,-97,-82,-73,-71,-73,-76,-77,-76,-74,-74,-75,-77,-79,-77,-76,-77,-75,-78,-81,-81,-78,-77,-77,-78,-82,-80,-78,-77,-77,-79,-78,-79,-76,-75,-76,-77,-80,-77,-76,-75,-76,-79,-79,-77,-75,-74,-73,-77,-79,-77,-77,-74,-75,-74,-75,-75,-74,-71,-73,-76,-75,-74,-76,-73,-74,-75,-78,-76,-75,-76,-74,-75,-76,-77,-77,-74,-75,-75,-76,-76,-76,-76,-75,-78,-79,-77,-77,-75,-75,-77,-77,-78,-74,-73,-73,-75,-77,-70,-69,-65,-65,-66,-65,-65,-63,-63,-63,-60,-60,-57,-54,-53,-52,-55,-57,-53,-51,-50,-54,-56,-57,-57,-56,-54,-54,-54,-57,-56,-55,-54,-53,-55,-58,-57,-57,-55,-54,-56,-59,-56,-54,-54,-55,-57,-60,-59,-58,-59,-60,-58,-61,-59,-58,-59,-58,-62,-64,-63,-63,-60,-61,-63,-66,-64,-61,-63,-61,-63,-65,-62,-59,-60,-61,-62,-65,-63,-63,-61,-61,-65,-64,-64,-62,-61,-64,-64,-64,-62,-61,-58,-57,-58,-61,-62,-60,-60,-62,-63,-63,-62,-59,-60,-59,-63,-62,-58,-53,-48,-51,-48,-50,-45,-45,-43,-42,-40,-39,-39,-36,-35,-36,-41,-43,-42,-42,-42,-42,-43,-45,-42,-36,-34,-37,-48,-51,-51,-54,-55,-57,-60,-60,-63,-61,-60,-59,-60,-63,-62,-62,-60,-60,-61,-63,-65,-64,-64,-64,-65,-68,-67,-65,-63,-64,-69,-74,-79,-85,-89,-93,-102,-106,-97,-74,-47,-18,21,75,131,164,173,147,90,12,-54,-86,-92,-83,-77,-73,-71,-71,-69,-70,-70,-72,-69,-68,-68,-67,-67,-71,-69,-68,-67,-68,-70,-73,-72,-73,-70,-69,-73,-72,-70,-71,-70,-71,-70,-72,-67,-67,-66,-68,-70,-70,-69,-67,-69,-71,-71,-74,-71,-70,-69,-73,-73,-74,-73,-71,-69,-69,-69,-68,-67,-65,-67,-69,-70,-70,-71,-71,-72,-70,-72,-73,-69,-69,-66,-70,-69,-71,-70,-68,-67,-70,-73,-76,-77,-71,-72,-71,-74,-77,-74,-74,-70,-69,-73,-73,-72,-69,-66,-66,-66,-67,-63,-62,-57,-58,-58,-60,-56,-55,-52,-52,-54,-53,-51,-50,-49,-49,-51,-53,-52,-51,-48,-50,-51,-55,-55,-53,-54,-55,-56,-58,-56,-55,-54,-54,-56,-58,-56,-57,-55,-58,-56,-58,-56,-57,-55,-56,-59,-61,-60,-60,-61,-63,-64,-62,-62,-60,-62,-62,-64,-65,-62,-64,-62,-62,-63,-65,-63,-61,-63,-62,-64,-65,-65,-64,-61,-61,-60,-63,-60,-62,-63,-61,-62,-64,-62,-60,-59,-60,-63,-65,-65,-61,-62,-58,-63,-65,-64,-58,-56,-52,-52,-53,-52,-50,-46,-44,-44,-47,-44,-41,-41,-42,-42,-46,-48,-46,-45,-47,-50,-53,-52,-49,-43,-43,-49,-56,-55,-55,-59,-62,-65,-68,-68,-65,-63,-62,-63,-66,-66,-65,-65,-67,-69,-70,-70,-70,-69,-70,-73,-72,-70,-71,-69,-69,-70,-73,-76,-81,-85,-88,-94,-104,-108,-98,-78,-52,-23,17,72,123,156,167,144,82,6,-51,-83,-94,-93,-87,-79,-75,-74,-75,-75,-78,-80,-76,-77,-77,-77,-77,-74,-74,-72,-76,-76,-77,-74,-74,-73,-75,-77,-78,-78,-77,-77,-79,-78,-80,-81,-78,-79,-78,-81,-81,-80,-75,-76,-78,-79,-79,-78,-78,-77,-81,-80,-81,-79,-78,-79,-78,-80,-81,-81,-78,-78,-79,-80,-80,-79,-76,-74,-76,-77,-79,-78,-76,-76,-77,-78,-78,-80,-80,-81,-83,-84,-86,-86,-85,-84,-86,-89,-93,-91,-88,-85,-87,-90,-88,-89,-85,-85,-85,-86,-86,-83,-83,-77,-75,-77,-74,-72,-70,-67,-67,-65,-64,-65,-61,-59,-60,-58,-59,-58,-58,-57,-57,-57,-58,-58,-57,-54,-54,-56,-58,-57,-55,-55,-55,-58,-61,-61,-60,-56,-58,-61,-63,-62,-59,-58,-60,-61,-61,-62,-60,-59,-61,-61,-63,-62,-62,-59,-60,-61,-62,-61,-61,-59,-60,-63,-65,-64,-64,-63,-62,-65,-67,-66,-64,-64,-62,-66,-66,-65,-62,-61,-61,-64,-66,-65,-60,-62,-61,-63,-66,-66,-66,-64,-65,-65,-67,-65,-63,-62,-63,-64,-65,-63,-62,-61,-62,-63,-64,-63,-62,-59,-59,-61,-62,-60,-56,-55,-53,-55,-55,-52,-48,-48,-47,-48,-47,-45,-43,-41,-41,-42,-43,-44,-44,-43,-44,-44,-46,-46,-48,-42,-44,-46,-51,-47,-42,-38,-41,-45,-52,-55,-56,-57,-61,-64,-63,-67,-65,-67,-64,-65,-64,-65,-65,-62,-61,-64,-64,-66,-64,-64,-66,-66,-72,-71,-66,-65,-65,-67,-70,-68,-69,-71,-77,-85,-90,-94,-97,-102,-103,-91,-65,-33,2,50,103,148,177,187,167,105,24,-46,-85,-91,-84,-76,-72,-73,-75,-76,-71,-71,-74,-75,-77,-76,-73,-74,-74,-73,-76,-74,-75,-73,-74,-76,-75,-73,-72,-72,-71,-71,-74,-73,-71,-70,-70,-70,-72,-72,-72,-70,-71,-73,-74,-72,-70,-71,-70,-71,-74,-75,-72,-70,-69,-70,-74,-74,-71,-70,-69,-72,-74,-73,-72,-70,-71,-73,-73,-74,-73,-70,-70,-72,-72,-71,-69,-70,-69,-71,-74,-73,-71,-72,-73,-73,-76,-77,-75,-74,-75,-77,-79,-75,-77,-76,-74,-77,-77,-76,-74,-72,-70,-67,-66,-63,-59,-58,-58,-57,-58,-56,-56,-52,-51,-54,-55,-52,-50,-49,-50,-52,-53,-49,-47,-49,-48,-50,-53,-50,-50,-50,-50,-51,-53,-52,-48,-50,-49,-50,-54,-53,-54,-53,-53,-55,-57,-55,-53,-54,-54,-56,-57,-57,-56,-57,-56,-57,-60,-58,-57,-54,-56,-59,-58,-58,-59,-58,-57,-61,-63,-62,-62,-58,-59,-62,-64,-63,-62,-60,-60,-63,-64,-63,-64,-58,-60,-60,-63,-62,-60,-60,-58,-62,-65,-63,-61,-61,-61,-63,-65,-64,-62,-60,-59,-63,-64,-61,-60,-58,-59,-59,-62,-59,-59,-57,-59,-59,-62,-60,-57,-56,-55,-56,-53,-49,-46,-48,-48,-48,-49,-44,-44,-43,-40,-40,-42,-41,-39,-41,-42,-43,-45,-45,-40,-40,-42,-45,-44,-39,-36,-35,-41,-49,-53,-55,-56,-57,-60,-62,-65,-64,-65,-62,-65,-66,-68,-67,-66,-65,-64,-68,-69,-68,-66,-67,-66,-68,-68,-67,-67,-66,-67,-69,-75,-79,-86,-88,-90,-90,-95,-96,-102,-110,-115,-109,-98,-75,-50,-24,12,57,105,148,172,178,146,85,3,-57,-87,-90,-87,-77,-76,-74,-74,-74,-72,-72,-74,-77,-73,-72,-73,-73,-75,-77,-72,-73,-71,-75,-76,-75,-71,-71,-72,-73,-76,-74,-71,-70,-71,-73,-76,-73,-71,-71,-73,-77,-78,-75,-71,-73,-72,-71,-73,-73,-71,-69,-69,-73,-72,-75,-71,-72,-73,-73,-74,-72,-71,-72,-73,-77,-76,-73,-71,-67,-72,-72,-77,-76,-75,-72,-72,-73,-75,-73,-71,-72,-70,-72,-74,-74,-73,-74,-76,-78,-77,-76,-74,-74,-73,-73,-78,-75,-74,-71,-73,-72,-74,-70,-68,-65,-64,-63,-65,-62,-59,-57,-58,-58,-55,-54,-53,-52,-52,-55,-55,-57,-52,-52,-53,-54,-56,-55,-51,-51,-49,-51,-52,-51,-51,-52,-53,-56,-59,-58,-55,-56,-56,-56,-57,-57,-56,-54,-57,-60,-62,-60,-58,-56,-60,-58,-62,-60,-59,-58,-57,-59,-65,-63,-62,-61,-60,-63,-66,-64,-64,-63,-64,-65,-67,-66,-65,-62,-63,-63,-67,-64,-62,-63,-62,-64,-67,-65,-65,-63,-62,-64,-66,-64,-64,-62,-66,-66,-69,-68,-66,-64,-63,-67,-67,-66,-62,-62,-63,-66,-64,-63,-60,-57,-56,-53,-52,-53,-52,-51,-52,-50,-51,-48,-46,-41,-42,-45,-47,-45,-45,-46,-45,-48,-48,-46,-47,-50,-50,-51,-47,-44,-41,-43,-48,-53,-56,-56,-54,-54,-58,-64,-67,-68,-66,-66,-67,-70,-72,-70,-70,-69,-70,-71,-73,-72,-71,-70,-68,-72,-74,-74,-71,-69,-70,-74,-77,-82,-88,-92,-98,-108,-113,-110,-97,-73,-51,-25,18,72,120,150,159,140,88,19,-37,-74,-94,-98,-94,-88,-85,-82,-82,-82,-84,-80,-79,-81,-82,-81,-84,-79,-79,-78,-79,-79,-82,-80,-80,-82,-80,-81,-82,-82,-80,-78,-78,-80,-80,-79,-78,-77,-78,-82,-82,-82,-83,-82,-81,-84,-84,-84,-83,-82,-83,-85,-85,-84,-85,-84,-82,-82,-83,-82,-82,-80,-81,-81,-85,-84,-82,-80,-81,-83,-84,-82,-82,-80,-82,-83,-84,-82,-80,-78,-80,-83,-84,-83,-83,-80,-83,-86,-90,-88,-88,-87,-87,-88,-90,-87,-88,-86,-88,-89,-89,-88,-87,-84,-83,-82,-81,-76,-75,-74,-74,-74,-72,-71,-65,-61,-62,-64,-65,-65,-63,-60,-61,-64,-66,-66,-62,-62,-62,-61,-62,-64,-61,-60,-60,-61,-64,-64,-63,-63,-62,-66,-67,-67,-64,-63,-63,-65,-66,-67,-64,-60,-60,-64,-64,-66,-64,-64,-65,-68,-71,-69,-70,-69,-69,-72,-72,-69,-68,-68,-71,-70,-70,-71,-68,-67,-68,-70,-71,-71,-71,-69,-69,-70,-72,-73,-73,-70,-70,-72,-74,-72,-70,-67,-70,-70,-69,-68,-68,-68,-68,-69,-70,-72,-70,-67,-69,-70,-70,-71,-68,-67,-66,-68,-71,-71,-66,-63,-63,-63,-64,-60,-60,-56,-53,-56,-57,-53,-47,-46,-46,-49,-51,-50,-49,-50,-51,-53,-54,-58,-56,-55,-52,-51,-52,-55,-59,-60,-61,-67,-71,-70,-70,-70,-71,-74,-74,-72,-73,-71,-73,-75,-77,-76,-75,-71,-74,-77,-78,-78,-74,-72,-74,-76,-77,-76,-75,-74,-76,-81,-89,-93,-96,-97,-105,-111,-107,-90,-65,-37,-5,37,86,132,163,170,150,97,22,-42,-78,-92,-97,-94,-90,-85,-83,-81,-83,-83,-84,-80,-79,-77,-79,-80,-84,-82,-80,-80,-81,-81,-87,-84,-82,-81,-83,-86,-88,-87,-83,-84,-86,-83,-86,-85,-84,-84,-83,-85,-85,-84,-82,-82,-82,-84,-86,-84,-83,-79,-81,-83,-86,-84,-84,-83,-84,-85,-88,-86,-85,-83,-84,-85,-88,-86,-86,-85,-84,-83,-85,-86,-85,-83,-81,-81,-85,-83,-84,-84,-84,-87,-87,-88,-84,-86,-90,-91,-93,-93,-93,-93,-93,-94,-98,-97,-92,-91,-92,-91,-91,-88,-85,-83,-80,-81,-80,-77,-73,-73,-72,-74,-75,-71,-68,-66,-66,-66,-68,-67,-64,-61,-63,-64,-64,-64,-63,-62,-62,-63,-66,-64,-64,-62,-64,-66,-68,-66,-65,-65,-64,-68,-70,-68,-64,-63,-65,-68,-69,-69,-68,-66,-67,-69,-72,-71,-68,-66,-67,-69,-73,-74,-70,-68,-67,-72,-71,-68,-67,-67,-64,-67,-71,-70,-69,-68,-67,-70,-74,-72,-71,-70,-69,-73,-72,-72,-70,-69,-71,-71,-73,-72,-69,-69,-70,-71,-72,-71,-70,-67,-67,-71,-69,-68,-66,-68,-69,-70,-71,-70,-67,-66,-66,-66,-66,-61,-57,-55,-56,-57,-58,-55,-52,-49,-48,-48,-48,-47,-45,-44,-46,-48,-51,-51,-48,-48,-50,-54,-54,-48,-46,-45,-53,-59,-61,-65,-63,-65,-66,-69,-72,-73,-71,-69,-68,-67,-72,-71,-69,-67,-71,-70,-75,-75,-73,-73,-70,-74,-76,-73,-74,-71,-74,-76,-77,-77,-80,-86,-93,-97,-104,-111,-105,-87,-61,-31,2,52,107,152,178,181,141,72,-6,-64,-91,-95,-88,-79,-76,-76,-77,-79,-80,-81,-79,-82,-78,-79,-81,-81,-79,-77,-77,-81,-81,-80,-77,-76,-77,-81,-82,-80,-79,-77,-79,-82,-81,-81,-79,-78,-79,-79,-81,-82,-80,-77,-79,-80,-79,-77,-77,-75,-75,-76,-79,-77,-78,-77,-76,-78,-80,-80,-78,-73,-75,-77,-80,-80,-78,-76,-75,-77,-79,-76,-74,-73,-73,-75,-77,-75,-75,-73,-74,-75,-80,-79,-81,-74,-77,-80,-82,-80,-79,-75,-76,-77,-81,-77,-75,-74,-73,-73,-70,-71,-64,-62,-62,-61,-62,-58,-56,-56,-54,-56,-57,-56,-57,-53,-54,-55,-58,-58,-55,-55,-54,-55,-58,-57,-57,-52,-52,-55,-57,-55,-53,-54,-56,-58,-59,-60,-56,-56,-55,-58,-60,-61,-57,-57,-57,-59,-60,-60,-59,-56,-59,-58,-61,-61,-60,-57,-57,-62,-63,-61,-61,-59,-60,-64,-67,-64,-64,-62,-63,-62,-66,-64,-62,-61,-61,-63,-63,-63,-61,-61,-60,-62,-62,-62,-62,-59,-60,-65,-65,-66,-64,-62,-61,-63,-66,-64,-62,-61,-60,-59,-64,-62,-60,-55,-54,-52,-50,-47,-46,-45,-46,-46,-48,-46,-45,-41,-41,-40,-42,-39,-40,-38,-40,-42,-45,-45,-44,-44,-44,-46,-50,-49,-46,-41,-37,-39,-45,-50,-51,-53,-55,-61,-64,-65,-65,-66,-66,-65,-67,-68,-67,-64,-67,-69,-71,-70,-71,-70,-69,-68,-71,-70,-68,-68,-68,-71,-80,-87,-91,-94,-100,-108,-109,-93,-71,-42,-7,37,87,135,164,165,128,64,-14,-68,-89,-89,-82,-76,-75,-75,-74,-73,-72,-74,-75,-74,-72,-70,-71,-73,-76,-76,-74,-73,-73,-76,-77,-78,-76,-75,-75,-76,-78,-76,-75,-74,-73,-75,-77,-73,-72,-70,-71,-71,-74,-73,-70,-72,-73,-73,-75,-75,-71,-71,-74,-75,-76,-77,-74,-74,-72,-74,-75,-73,-71,-69,-72,-71,-73,-72,-69,-67,-67,-71,-71,-70,-68,-70,-70,-71,-73,-72,-73,-73,-73,-74,-75,-76,-73,-70,-72,-73,-76,-75,-74,-72,-73,-75,-76,-75,-72,-71,-71,-71,-70,-70,-68,-66,-65,-67,-67,-66,-62,-60,-59,-61,-62,-57,-57,-53,-54,-57,-58,-55,-54,-51,-53,-53,-55,-54,-52,-50,-52,-54,-56,-58,-58,-56,-56,-58,-61,-60,-60,-59,-60,-58,-60,-62,-62,-59,-59,-60,-64,-63,-63,-60,-62,-61,-63,-61,-61,-61,-60,-61,-62,-63,-63,-63,-64,-67,-69,-67,-62,-65,-64,-66,-65,-65,-64,-64,-63,-65,-69,-67,-65,-65,-66,-67,-68,-67,-65,-64,-63,-67,-69,-67,-65,-65,-64,-65,-67,-64,-64,-62,-62,-64,-66,-68,-65,-61,-61,-58,-58,-54,-53,-53,-52,-52,-54,-55,-52,-49,-47,-46,-49,-48,-46,-48,-45,-48,-49,-48,-44,-44,-46,-49,-51,-48,-43,-45,-51,-57,-62,-62,-66,-67,-70,-70,-72,-71,-68,-68,-67,-70,-72,-72,-69,-69,-70,-70,-72,-70,-70,-69,-71,-71,-74,-75,-78,-85,-91,-95,-100,-108,-114,-102,-83,-67,-52,-30,-1,41,94,136,165,185,194,177,138,83,21,-30,-69,-87,-93,-91,-85,-83,-79,-75,-74,-79,-80,-80,-82,-80,-81,-80,-81,-79,-78,-76,-77,-81,-84,-81,-80,-78,-76,-79,-79,-80,-78,-82,-81,-82,-82,-79,-77,-79,-81,-84,-87,-83,-81,-82,-80,-82,-83,-82,-80,-81,-78,-78,-80,-78,-78,-78,-79,-84,-84,-83,-82,-79,-79,-80,-83,-83,-80,-80,-77,-78,-82,-79,-78,-76,-75,-78,-81,-84,-83,-83,-83,-87,-93,-91,-93,-92,-89,-91,-93,-95,-91,-92,-90,-91,-94,-91,-88,-84,-83,-84,-82,-82,-74,-72,-70,-70,-69,-67,-64,-60,-64,-63,-68,-65,-60,-60,-60,-62,-66,-62,-61,-60,-61,-63,-66,-62,-61,-62,-61,-62,-62,-62,-60,-61,-62,-62,-64,-63,-66,-63,-64,-68,-68,-67,-66,-64,-64,-65,-70,-68,-67,-67,-69,-70,-72,-72,-69,-67,-67,-67,-69,-67,-67,-66,-67,-67,-70,-69,-71,-69,-69,-71,-73,-72,-71,-69,-69,-69,-72,-69,-68,-67,-68,-69,-74,-74,-72,-68,-70,-73,-71,-70,-68,-68,-71,-71,-70,-70,-67,-68,-68,-66,-70,-63,-60,-58,-55,-56,-57,-55,-54,-51,-48,-50,-51,-48,-45,-45,-48,-51,-52,-55,-52,-49,-51,-53,-56,-54,-50,-47,-46,-49,-54,-56,-56,-58,-63,-67,-71,-71,-71,-72,-72,-75,-76,-72,-71,-70,-69,-74,-74,-71,-71,-70,-69,-71,-71,-72,-71,-71,-71,-72,-75,-74,-78,-85,-93,-98,-105,-112,-112,-99,-72,-44,-9,38,95,145,179,179,142,70,-11,-70,-96,-98,-93,-83,-81,-79,-81,-84,-79,-83,-80,-78,-77,-79,-81,-79,-80,-78,-78,-80,-83,-81,-78,-76,-76,-81,-78,-80,-78,-76,-76,-81,-80,-82,-80,-79,-80,-80,-81,-78,-76,-77,-77,-78,-81,-80,-80,-78,-78,-82,-82,-81,-80,-82,-81,-82,-83,-82,-81,-79,-81,-80,-80,-79,-81,-76,-77,-78,-82,-79,-78,-76,-77,-81,-81,-81,-80,-82,-82,-83,-87,-86,-83,-84,-84,-88,-88,-87,-87,-87,-86,-89,-89,-84,-85,-82,-81,-80,-82,-76,-74,-70,-68,-71,-69,-68,-63,-64,-60,-60,-63,-61,-60,-56,-58,-58,-60,-59,-59,-56,-57,-58,-59,-57,-56,-55,-53,-56,-59,-56,-56,-55,-58,-59,-62,-58,-58,-55,-54,-59,-63,-62,-60,-59,-58,-60,-63,-61,-60,-58,-62,-63,-66,-62,-61,-59,-59,-61,-65,-63,-63,-62,-60,-63,-67,-65,-65,-63,-62,-64,-67,-65,-62,-61,-61,-64,-65,-63,-62,-60,-63,-65,-64,-64,-64,-62,-62,-62,-63,-61,-57,-59,-61,-62,-63,-60,-63,-61,-61,-65,-65,-63,-60,-59,-62,-63,-64,-63,-62,-59,-57,-54,-50,-49,-46,-44,-45,-47,-46,-44,-41,-38,-38,-38,-41,-41,-41,-42,-43,-45,-46,-45,-44,-44,-48,-48,-46,-41,-39,-39,-44,-49,-55,-52,-55,-57,-60,-60,-62,-62,-64,-64,-65,-67,-69,-67,-67,-66,-67,-69,-72,-69,-67,-69,-69,-71,-72,-71,-68,-68,-70,-70,-71,-71,-71,-74,-85,-93,-96,-100,-106,-107,-97,-79,-51,-19,19,70,126,169,191,195,165,96,11,-54,-91,-97,-88,-81,-75,-75,-78,-76,-72,-71,-69,-73,-75,-74,-74,-71,-74,-75,-76,-77,-76,-76,-76,-77,-79,-79,-78,-77,-76,-76,-79,-78,-76,-74,-75,-77,-76,-75,-73,-72,-73,-73,-77,-74,-73,-71,-77,-79,-79,-77,-74,-76,-74,-75,-78,-77,-76,-74,-74,-77,-77,-76,-77,-74,-75,-75,-76,-76,-71,-72,-73,-74,-76,-74,-75,-72,-74,-76,-77,-75,-75,-74,-74,-77,-80,-79,-77,-79,-76,-80,-80,-80,-78,-78,-77,-80,-80,-77,-76,-76,-77,-77,-81,-79,-76,-74,-74,-76,-73,-71,-67,-65,-64,-64,-66,-63,-60,-59,-57,-59,-58,-57,-54,-52,-53,-55,-56,-55,-54,-54,-52,-54,-56,-57,-55,-53,-54,-57,-57,-57,-55,-56,-55,-57,-59,-59,-57,-56,-54,-57,-55,-58,-57,-56,-58,-60,-62,-62,-62,-60,-60,-63,-65,-63,-61,-62,-62,-63,-66,-65,-64,-64,-63,-65,-66,-67,-65,-64,-64,-63,-64,-62,-62,-60,-61,-64,-68,-67,-66,-64,-66,-66,-67,-68,-67,-65,-68,-69,-68,-68,-65,-68,-67,-68,-70,-68,-66,-66,-65,-67,-68,-67,-63,-63,-62,-64,-66,-64,-61,-62,-61,-59,-64,-61,-58,-57,-57,-57,-57,-53,-50,-50,-50,-50,-50,-50,-46,-43,-45,-45,-46,-46,-45,-43,-43,-46,-50,-48,-46,-46,-48,-50,-51,-44,-40,-40,-45,-53,-58,-58,-60,-62,-65,-67,-68,-70,-68,-68,-69,-66,-70,-69,-69,-68,-70,-71,-71,-71,-69,-68,-68,-71,-72,-72,-71,-69,-69,-72,-74,-75,-74,-76,-84,-93,-97,-103,-109,-115,-109,-90,-65,-39,-9,33,85,131,162,175,163,118,44,-30,-76,-94,-93,-85,-77,-75,-79,-77,-75,-71,-74,-72,-73,-74,-74,-72,-73,-75,-76,-74,-74,-74,-76,-77,-79,-78,-76,-75,-75,-79,-80,-79,-74,-74,-74,-73,-78,-77,-75,-72,-76,-78,-78,-77,-75,-75,-75,-76,-78,-76,-73,-76,-76,-77,-78,-78,-76,-76,-77,-79,-80,-77,-76,-72,-74,-75,-74,-77,-74,-73,-72,-73,-75,-76,-73,-74,-72,-74,-79,-77,-77,-78,-78,-78,-82,-78,-76,-78,-76,-79,-81,-81,-79,-78,-78,-82,-83,-78,-76,-78,-77,-78,-78,-76,-72,-71,-69,-68,-69,-66,-64,-63,-60,-61,-64,-60,-55,-55,-55,-55,-56,-57,-55,-55,-56,-59,-61,-61,-60,-58,-57,-59,-62,-60,-60,-59,-60,-61,-62,-63,-61,-62,-62,-63,-64,-61,-58,-57,-59,-60,-63,-62,-63,-64,-64,-66,-68,-64,-62,-64,-64,-66,-69,-68,-66,-66,-64,-66,-65,-65,-64,-63,-64,-66,-69,-64,-63,-63,-64,-65,-67,-68,-66,-65,-63,-67,-69,-68,-65,-64,-66,-69,-68,-66,-68,-65,-63,-62,-65,-63,-66,-63,-64,-65,-66,-66,-63,-62,-61,-62,-62,-60,-57,-55,-54,-54,-56,-53,-51,-50,-49,-50,-49,-45,-43,-44,-44,-46,-47,-48,-48,-46,-45,-48,-54,-50,-51,-47,-45,-43,-48,-52,-55,-57,-63,-64,-69,-70,-70,-72,-73,-71,-72,-72,-72,-70,-69,-71,-75,-73,-70,-69,-68,-67,-71,-73,-70,-69,-69,-71,-74,-74,-73,-72,-77,-83,-91,-93,-92,-95,-99,-111,-117,-110,-92,-69,-41,-8,38,91,136,168,176,145,80,0,-56,-87,-102,-97,-92,-86,-81,-82,-82,-83,-81,-83,-79,-78,-79,-81,-82,-82,-79,-78,-80,-80,-79,-80,-77,-77,-79,-82,-84,-82,-80,-78,-82,-83,-85,-85,-81,-80,-85,-83,-83,-82,-81,-80,-82,-81,-83,-82,-80,-79,-80,-81,-81,-83,-81,-80,-81,-82,-84,-83,-80,-79,-80,-83,-84,-82,-80,-79,-80,-83,-82,-83,-83,-81,-82,-84,-88,-86,-86,-85,-87,-87,-88,-90,-90,-90,-93,-94,-97,-93,-91,-90,-90,-94,-97,-92,-89,-87,-85,-86,-86,-83,-77,-73,-75,-72,-72,-70,-67,-67,-65,-67,-67,-67,-62,-62,-63,-63,-64,-63,-59,-59,-60,-61,-66,-65,-63,-65,-64,-66,-67,-67,-66,-61,-65,-65,-65,-65,-62,-61,-63,-65,-66,-65,-65,-68,-68,-68,-69,-68,-65,-66,-64,-65,-68,-68,-67,-68,-70,-71,-72,-70,-69,-69,-72,-71,-74,-73,-70,-72,-70,-72,-74,-72,-71,-69,-69,-70,-70,-69,-67,-66,-68,-69,-70,-69,-69,-68,-68,-69,-72,-70,-69,-67,-69,-69,-71,-69,-67,-65,-64,-61,-61,-60,-57,-56,-53,-55,-54,-49,-48,-46,-47,-46,-49,-49,-48,-50,-51,-51,-54,-53,-53,-53,-51,-50,-47,-46,-50,-52,-56,-61,-68,-66,-67,-66,-69,-70,-72,-72,-72,-73,-73,-71,-73,-72,-72,-72,-71,-75,-75,-73,-72,-74,-72,-76,-78,-77,-77,-73,-75,-75,-80,-79,-86,-92,-96,-102,-114,-117,-103,-77,-48,-17,25,81,135,173,187,168,111,28,-40,-81,-97,-97,-90,-77,-77,-77,-78,-77,-79,-78,-77,-77,-78,-79,-78,-78,-79,-76,-77,-78,-81,-80,-79,-78,-78,-78,-81,-75,-78,-76,-78,-77,-78,-77,-74,-73,-73,-76,-78,-78,-77,-75,-76,-78,-78,-79,-75,-77,-77,-80,-78,-77,-77,-75,-76,-79,-81,-77,-76,-75,-76,-76,-78,-78,-76,-71,-71,-74,-77,-75,-77,-75,-78,-78,-80,-80,-77,-78,-78,-81,-83,-81,-81,-81,-82,-85,-86,-84,-81,-82,-82,-82,-82,-80,-77,-74,-75,-72,-73,-71,-67,-63,-63,-62,-63,-59,-58,-54,-57,-58,-58,-56,-55,-51,-54,-55,-55,-56,-51,-49,-52,-51,-53,-52,-52,-48,-50,-52,-55,-53,-52,-52,-57,-57,-56,-57,-57,-53,-56,-55,-59,-59,-56,-55,-56,-57,-62,-61,-56,-58,-57,-58,-60,-62,-59,-59,-58,-63,-62,-62,-63,-61,-62,-64,-65,-62,-61,-62,-61,-63,-63,-61,-61,-60,-60,-63,-64,-61,-59,-60,-61,-60,-64,-62,-61,-59,-60,-62,-65,-63,-63,-60,-60,-62,-64,-63,-61,-60,-60,-60,-60,-57,-52,-49,-48,-49,-50,-48,-49,-46,-44,-46,-47,-46,-41,-40,-39,-42,-43,-41,-41,-41,-42,-45,-46,-45,-44,-44,-43,-40,-38,-38,-41,-45,-50,-54,-60,-61,-64,-64,-65,-67,-68,-67,-69,-66,-66,-69,-69,-70,-67,-67,-67,-68,-69,-68,-64,-65,-65,-67,-69,-70,-79,-86,-92,-101,-109,-115,-112,-91,-66,-47,-26,0,32,70,109,140,163,186,207,210,184,114,23,-49,-84,-85,-78,-71,-72,-73,-71,-70,-72,-73,-78,-77,-75,-74,-74,-76,-79,-77,-75,-73,-74,-77,-80,-77,-77,-74,-75,-77,-79,-78,-74,-72,-72,-73,-74,-74,-73,-71,-72,-74,-76,-76,-73,-74,-73,-76,-78,-76,-76,-73,-73,-75,-77,-77,-75,-72,-71,-74,-75,-74,-74,-71,-73,-72,-77,-77,-76,-72,-73,-75,-76,-74,-74,-74,-72,-77,-79,-76,-75,-73,-75,-77,-78,-75,-74,-74,-74,-74,-77,-76,-77,-74,-74,-74,-76,-74,-69,-68,-65,-67,-65,-61,-59,-59,-60,-60,-61,-59,-56,-57,-55,-53,-56,-55,-51,-53,-52,-53,-57,-57,-55,-52,-53,-57,-57,-58,-55,-55,-53,-55,-61,-58,-57,-57,-55,-59,-60,-56,-56,-54,-56,-59,-60,-62,-63,-61,-61,-67,-67,-64,-64,-62,-64,-66,-66,-66,-66,-62,-63,-64,-67,-66,-63,-62,-63,-66,-68,-67,-68,-61,-64,-66,-68,-67,-64,-64,-66,-66,-67,-65,-63,-64,-63,-64,-62,-62,-62,-61,-60,-62,-62,-60,-57,-58,-55,-55,-55,-54,-51,-48,-49,-48,-49,-49,-44,-41,-38,-39,-38,-40,-39,-40,-42,-43,-44,-42,-42,-40,-42,-44,-43,-44,-47,-45,-45,-44,-40,-41,-46,-50,-52,-57,-60,-63,-66,-65,-67,-68,-69,-66,-64,-64,-65,-67,-67,-67,-66,-66,-67,-70,-71,-70,-69,-68,-70,-72,-78,-80,-87,-93,-96,-103,-114,-116,-104,-80,-50,-19,20,79,132,166,176,152,92,14,-48,-85,-97,-96,-86,-80,-79,-80,-80,-79,-78,-75,-73,-74,-77,-79,-81,-78,-78,-77,-76,-79,-80,-76,-76,-75,-77,-79,-81,-80,-79,-79,-76,-79,-78,-79,-80,-78,-77,-78,-80,-78,-76,-76,-77,-76,-77,-74,-75,-74,-74,-75,-77,-77,-75,-77,-76,-80,-81,-80,-77,-76,-75,-79,-81,-81,-79,-78,-76,-77,-79,-75,-75,-76,-77,-75,-77,-77,-75,-76,-80,-81,-83,-82,-83,-80,-82,-82,-83,-83,-83,-83,-83,-85,-89,-86,-84,-83,-80,-82,-81,-77,-75,-70,-70,-70,-71,-67,-66,-61,-62,-65,-65,-63,-63,-62,-62,-61,-63,-64,-62,-61,-61,-61,-62,-59,-59,-58,-57,-57,-61,-61,-59,-58,-59,-59,-61,-61,-60,-60,-60,-64,-64,-65,-64,-64,-61,-65,-64,-63,-64,-62,-63,-62,-63,-63,-63,-61,-62,-63,-65,-66,-66,-65,-65,-66,-70,-70,-66,-65,-66,-70,-72,-70,-68,-66,-66,-66,-70,-70,-68,-65,-64,-66,-67,-70,-68,-69,-68,-66,-67,-68,-64,-65,-66,-70,-70,-67,-64,-62,-61,-59,-59,-55,-54,-51,-53,-50,-50,-50,-45,-44,-44,-46,-50,-50,-50,-47,-46,-49,-48,-47,-47,-46,-51,-52,-55,-53,-51,-46,-45,-48,-54,-57,-59,-61,-64,-71,-73,-72,-73,-71,-71,-72,-73,-73,-71,-69,-71,-74,-77,-74,-70,-70,-69,-72,-74,-74,-72,-69,-72,-73,-77,-78,-81,-86,-90,-94,-103,-110,-113,-101,-84,-59,-26,16,72,124,167,184,166,109,32,-36,-79,-98,-103,-94,-85,-82,-82,-83,-82,-81,-79,-79,-79,-81,-82,-80,-81,-79,-80,-82,-84,-83,-83,-81,-82,-86,-89,-89,-85,-83,-84,-84,-85,-84,-85,-82,-83,-87,-88,-87,-83,-83,-82,-82,-84,-86,-87,-85,-84,-84,-85,-85,-85,-84,-85,-85,-85,-84,-83,-83,-83,-84,-86,-85,-84,-83,-84,-84,-86,-84,-84,-82,-81,-85,-87,-88,-84,-83,-86,-88,-90,-90,-89,-89,-89,-93,-95,-98,-96,-95,-96,-97,-98,-97,-95,-91,-93,-92,-94,-91,-90,-87,-86,-86,-84,-83,-78,-77,-75,-75,-75,-72,-69,-67,-66,-69,-68,-67,-66,-65,-64,-66,-67,-65,-64,-62,-61,-65,-66,-65,-64,-61,-64,-64,-68,-65,-65,-66,-66,-69,-71,-70,-66,-65,-67,-67,-72,-70,-69,-71,-72,-70,-74,-70,-71,-70,-70,-70,-73,-71,-72,-70,-72,-73,-75,-73,-75,-73,-76,-76,-79,-77,-75,-74,-75,-75,-77,-75,-75,-72,-74,-75,-76,-75,-73,-72,-72,-73,-76,-76,-75,-71,-73,-74,-77,-75,-72,-73,-73,-76,-76,-74,-72,-72,-70,-72,-73,-70,-69,-67,-65,-64,-66,-64,-60,-60,-59,-61,-59,-57,-54,-54,-51,-53,-54,-55,-53,-55,-54,-57,-59,-59,-57,-55,-56,-60,-58,-57,-51,-48,-54,-60,-68,-68,-70,-72,-76,-78,-81,-80,-77,-77,-77,-81,-82,-81,-78,-80,-79,-83,-83,-81,-79,-78,-78,-81,-83,-83,-80,-81,-86,-96,-105,-110,-114,-119,-129,-128,-114,-88,-67,-50,-30,-3,32,82,133,171,191,182,129,43,-39,-89,-108,-102,-97,-87,-89,-88,-88,-88,-90,-91,-91,-90,-91,-92,-94,-93,-90,-88,-90,-89,-92,-92,-88,-89,-89,-90,-91,-90,-91,-87,-91,-90,-91,-91,-89,-88,-87,-87,-90,-89,-86,-88,-90,-90,-91,-92,-88,-87,-89,-91,-92,-91,-88,-89,-88,-90,-93,-90,-91,-88,-88,-90,-95,-91,-90,-90,-88,-88,-91,-88,-88,-87,-88,-89,-91,-90,-88,-87,-90,-89,-91,-90,-89,-89,-91,-94,-94,-96,-93,-91,-91,-93,-94,-94,-91,-91,-92,-90,-91,-89,-87,-82,-84,-84,-85,-82,-78,-74,-74,-75,-76,-72,-70,-70,-67,-68,-71,-71,-68,-66,-69,-70,-69,-69,-66,-63,-65,-68,-68,-68,-68,-67,-69,-70,-74,-70,-69,-67,-71,-73,-72,-73,-72,-70,-71,-71,-75,-75,-74,-71,-71,-75,-75,-77,-73,-72,-73,-78,-78,-77,-76,-77,-78,-78,-81,-78,-79,-78,-79,-82,-83,-83,-81,-79,-81,-83,-84,-82,-84,-80,-80,-81,-83,-84,-80,-79,-77,-81,-82,-82,-81,-79,-81,-82,-82,-83,-83,-81,-79,-81,-82,-82,-80,-79,-79,-79,-81,-78,-74,-73,-71,-71,-71,-70,-68,-66,-65,-68,-69,-69,-65,-60,-61,-61,-64,-60,-63,-59,-61,-64,-66,-64,-60,-59,-62,-65,-64,-60,-56,-59,-66,-73,-77,-78,-79,-79,-82,-84,-88,-86,-84,-83,-82,-86,-87,-86,-86,-84,-84,-88,-89,-86,-86,-85,-86,-86,-89,-88,-91,-86,-88,-91,-96,-102,-109,-113,-116,-127,-133,-126,-102,-71,-40,-5,48,108,151,169,159,110,24,-57,-104,-117,-112,-104,-100,-94,-95,-94,-92,-96,-97,-97,-94,-93,-95,-96,-98,-97,-95,-94,-95,-98,-99,-99,-99,-96,-98,-97,-99,-98,-97,-96,-95,-97,-98,-97,-96,-95,-97,-97,-102,-99,-98,-97,-95,-95,-99,-95,-95,-95,-94,-99,-99,-99,-98,-94,-97,-99,-101,-99,-98,-98,-96,-98,-100,-99,-98,-95,-96,-98,-100,-96,-97,-95,-96,-96,-96,-94,-93,-92,-95,-95,-96,-98,-96,-94,-96,-99,-101,-101,-97,-97,-97,-99,-101,-101,-98,-97,-100,-98,-100,-96,-94,-89,-90,-90,-90,-85,-81,-77,-77,-79,-78,-77,-75,-74,-75,-77,-78,-78,-77,-74,-74,-78,-77,-77,-77,-75,-75,-76,-78,-74,-76,-73,-74,-75,-78,-76,-73,-73,-74,-75,-79,-78,-78,-76,-78,-81,-83,-83,-82,-79,-79,-82,-84,-82,-83,-80,-84,-85,-86,-86,-85,-82,-82,-82,-85,-85,-82,-82,-84,-84,-89,-90,-87,-86,-86,-88,-90,-89,-88,-84,-84,-86,-89,-89,-87,-85,-85,-89,-90,-89,-87,-85,-84,-86,-86,-86,-84,-81,-83,-84,-85,-85,-84,-85,-84,-85,-88,-88,-85,-84,-84,-83,-85,-80,-76,-73,-74,-74,-73,-71,-69,-66,-64,-64,-66,-65,-63,-63,-63,-65,-68,-69,-67,-65,-67,-71,-76,-72,-69,-61,-59,-63,-67,-73,-74,-75,-77,-81,-86,-86,-86,-86,-87,-90,-92,-92,-92,-91,-90,-90,-93,-94,-94,-92,-95,-96,-98,-96,-93,-93,-96,-97,-99,-99,-98,-98,-105,-111,-120,-122,-124,-131,-136,-131,-115,-89,-62,-26,25,79,120,145,143,106,37,-39,-91,-118,-123,-117,-109,-107,-107,-107,-105,-101,-103,-101,-103,-103,-98,-99,-100,-98,-104,-102,-104,-101,-101,-101,-103,-103,-100,-102,-103,-105,-106,-105,-107,-104,-105,-104,-106,-104,-104,-102,-103,-102,-106,-106,-104,-102,-101,-105,-106,-105,-102,-99,-100,-102,-104,-104,-103,-101,-100,-102,-104,-101,-103,-102,-104,-101,-101,-103,-105,-100,-99,-99,-101,-99,-98,-95,-98,-99,-102,-101,-100,-100,-100,-101,-103,-101,-101,-103,-102,-105,-107,-107,-108,-104,-108,-108,-112,-110,-108,-109,-108,-109,-110,-111,-106,-104,-103,-100,-101,-101,-97,-93,-94,-92,-92,-91,-87,-86,-85,-86,-88,-88,-87,-82,-82,-83,-84,-82,-80,-79,-78,-81,-82,-81,-78,-80,-81,-83,-83,-83,-82,-80,-82,-82,-85,-83,-79,-81,-80,-83,-84,-85,-82,-80,-81,-84,-84,-83,-82,-82,-84,-85,-88,-87,-86,-86,-86,-86,-89,-90,-87,-85,-84,-85,-86,-91,-90,-88,-86,-88,-88,-88,-86,-84,-83,-85,-90,-91,-90,-89,-87,-87,-90,-90,-89,-86,-85,-90,-92,-89,-88,-85,-84,-89,-90,-87,-85,-82,-84,-88,-89,-87,-86,-86,-85,-86,-85,-82,-82,-76,-73,-74,-80,-78,-74,-71,-70,-72,-76,-74,-71,-66,-65,-65,-66,-64,-64,-63,-64,-68,-71,-70,-68,-68,-72,-74,-77,-74,-68,-65,-67,-76,-78,-82,-84,-84,-88,-90,-92,-89,-91,-87,-89,-90,-92,-93,-92,-91,-91,-93,-96,-93,-91,-91,-94,-94,-95,-97,-94,-96,-92,-96,-97,-97,-99,-105,-108,-114,-119,-127,-134,-126,-108,-83,-56,-16,33,87,135,160,166,132,69,-8,-70,-106,-121,-125,-118,-109,-104,-102,-106,-103,-100,-99,-99,-101,-101,-101,-99,-100,-100,-100,-104,-101,-99,-99,-100,-102,-103,-102,-100,-96,-100,-101,-104,-103,-101,-98,-102,-101,-100,-101,-98,-96,-98,-97,-100,-100,-98,-97,-99,-101,-101,-102,-100,-98,-98,-100,-102,-103,-99,-99,-98,-103,-102,-101,-99,-99,-97,-98,-102,-99,-97,-96,-96,-99,-102,-104,-102,-101,-103,-104,-108,-108,-104,-106,-107,-108,-111,-111,-108,-108,-109,-108,-110,-108,-106,-106,-105,-105,-104,-102,-99,-96,-93,-94,-93,-91,-88,-83,-83,-82,-82,-78,-78,-76,-76,-78,-79,-77,-76,-73,-75,-77,-75,-76,-74,-73,-74,-76,-80,-79,-78,-77,-79,-80,-82,-82,-80,-78,-79,-79,-81,-81,-79,-77,-80,-82,-82,-82,-80,-77,-79,-79,-80,-81,-78,-77,-81,-83,-84,-83,-82,-82,-81,-84,-87,-86,-86,-84,-82,-85,-88,-89,-83,-83,-84,-84,-89,-85,-82,-83,-84,-82,-84,-81,-80,-78,-78,-79,-82,-81,-79,-79,-79,-81,-84,-84,-81,-79,-78,-82,-83,-83,-82,-78,-78,-80,-79,-79,-75,-74,-69,-70,-68,-66,-64,-60,-61,-64,-64,-62,-57,-55,-56,-58,-59,-61,-60,-60,-62,-63,-65,-61,-61,-63,-63,-62,-61,-55,-51,-52,-59,-65,-68,-70,-70,-72,-75,-76,-81,-80,-81,-78,-81,-83,-85,-84,-83,-84,-82,-85,-85,-86,-82,-82,-80,-84,-86,-85,-83,-86,-90,-98,-108,-110,-114,-119,-121,-111,-85,-51,-16,32,89,141,177,201,209,195,148,70,-14,-81,-110,-112,-107,-100,-91,-91,-89,-89,-88,-91,-93,-93,-93,-93,-93,-96,-97,-96,-94,-94,-92,-92,-95,-95,-94,-91,-91,-92,-92,-92,-91,-90,-90,-91,-95,-93,-93,-90,-90,-91,-96,-94,-89,-87,-88,-90,-92,-92,-89,-86,-85,-90,-92,-91,-90,-88,-89,-88,-90,-89,-88,-87,-90,-90,-91,-91,-92,-90,-87,-93,-93,-90,-87,-86,-87,-90,-93,-93,-92,-91,-91,-92,-94,-94,-92,-90,-91,-92,-95,-92,-92,-90,-90,-89,-89,-87,-85,-84,-83,-79,-81,-77,-77,-74,-72,-72,-72,-71,-71,-67,-67,-69,-68,-67,-64,-64,-65,-65,-67,-66,-65,-65,-67,-70,-72,-73,-69,-67,-70,-70,-71,-72,-69,-66,-66,-69,-71,-71,-68,-69,-70,-72,-74,-75,-72,-73,-72,-73,-76,-75,-73,-73,-73,-75,-78,-77,-75,-74,-74,-75,-78,-76,-74,-69,-72,-74,-77,-75,-75,-74,-74,-79,-80,-77,-78,-76,-77,-76,-79,-78,-77,-75,-75,-76,-78,-76,-75,-75,-73,-74,-74,-71,-72,-70,-67,-70,-70,-68,-64,-59,-59,-61,-63,-60,-57,-57,-57,-57,-54,-55,-52,-49,-50,-52,-54,-56,-56,-53,-53,-53,-55,-54,-51,-48,-46,-48,-55,-62,-61,-64,-66,-70,-74,-75,-73,-74,-74,-74,-76,-77,-76,-74,-72,-74,-77,-75,-75,-76,-76,-79,-80,-80,-78,-78,-78,-79,-83,-85,-87,-95,-100,-105,-114,-121,-119,-100,-72,-46,-11,40,100,146,171,167,124,45,-32,-83,-105,-103,-94,-87,-83,-83,-82,-81,-83,-84,-83,-80,-83,-84,-86,-84,-81,-82,-80,-83,-86,-84,-85,-81,-82,-84,-87,-86,-85,-83,-84,-85,-87,-85,-84,-82,-82,-84,-85,-83,-81,-80,-81,-80,-82,-84,-81,-79,-83,-82,-86,-85,-83,-83,-82,-84,-86,-85,-82,-82,-80,-81,-83,-84,-81,-80,-78,-80,-80,-81,-79,-78,-81,-80,-86,-86,-84,-83,-81,-85,-87,-86,-85,-83,-85,-85,-88,-87,-83,-83,-85,-86,-87,-82,-79,-77,-75,-76,-77,-76,-73,-69,-69,-72,-73,-69,-68,-65,-65,-66,-68,-67,-65,-62,-61,-62,-67,-66,-64,-63,-62,-62,-63,-61,-61,-59,-60,-63,-66,-66,-63,-61,-65,-67,-67,-68,-67,-64,-68,-71,-70,-72,-70,-68,-67,-69,-72,-70,-70,-69,-69,-71,-73,-72,-72,-71,-72,-74,-75,-77,-75,-74,-76,-77,-77,-76,-76,-74,-74,-75,-74,-74,-72,-72,-71,-76,-80,-79,-78,-76,-76,-78,-77,-74,-75,-73,-72,-73,-76,-76,-74,-75,-76,-78,-79,-78,-71,-70,-72,-75,-77,-76,-75,-70,-71,-71,-71,-69,-66,-63,-62,-65,-63,-60,-57,-53,-51,-54,-53,-53,-51,-51,-53,-55,-58,-55,-55,-57,-59,-60,-58,-54,-55,-59,-62,-69,-73,-74,-78,-77,-79,-82,-83,-81,-79,-80,-81,-80,-81,-82,-78,-79,-79,-83,-86,-86,-83,-82,-81,-82,-82,-84,-82,-83,-85,-91,-100,-102,-104,-104,-114,-123,-131,-128,-114,-95,-72,-47,-8,48,103,142,159,144,87,13,-50,-89,-107,-110,-102,-96,-90,-90,-89,-88,-91,-90,-90,-88,-88,-89,-90,-91,-89,-87,-86,-88,-91,-89,-89,-88,-87,-92,-92,-91,-93,-90,-89,-94,-97,-93,-92,-92,-90,-90,-94,-92,-91,-88,-87,-89,-90,-87,-88,-89,-89,-90,-90,-88,-87,-88,-89,-91,-95,-92,-90,-87,-88,-89,-91,-90,-87,-87,-90,-90,-92,-91,-88,-86,-85,-87,-92,-93,-89,-88,-88,-94,-96,-98,-96,-95,-97,-98,-99,-98,-98,-98,-99,-99,-102,-99,-99,-95,-95,-93,-95,-93,-86,-82,-81,-79,-81,-79,-74,-71,-73,-74,-74,-76,-74,-71,-72,-74,-74,-71,-68,-65,-65,-68,-69,-72,-69,-69,-71,-71,-73,-74,-73,-74,-74,-75,-75,-73,-72,-71,-71,-71,-75,-76,-77,-73,-73,-75,-76,-77,-77,-74,-76,-80,-82,-80,-77,-75,-76,-78,-82,-80,-79,-78,-78,-78,-80,-80,-78,-77,-78,-79,-79,-80,-80,-77,-78,-80,-80,-78,-76,-74,-74,-76,-81,-78,-78,-76,-76,-76,-78,-76,-76,-75,-76,-78,-82,-81,-79,-79,-77,-81,-81,-77,-74,-67,-65,-65,-69,-67,-65,-64,-64,-62,-62,-60,-58,-56,-57,-59,-61,-59,-58,-57,-58,-60,-63,-62,-62,-58,-55,-56,-60,-64,-68,-68,-74,-79,-84,-83,-85,-83,-82,-84,-85,-85,-86,-83,-82,-85,-88,-89,-87,-84,-82,-84,-87,-85,-85,-83,-84,-86,-87,-90,-94,-98,-104,-107,-111,-118,-123,-124,-111,-89,-65,-35,5,53,108,147,170,171,136,65,-17,-78,-104,-111,-106,-98,-91,-91,-93,-93,-90,-88,-90,-89,-93,-88,-90,-87,-88,-90,-92,-94,-91,-91,-92,-95,-97,-95,-93,-91,-92,-92,-92,-92,-93,-90,-91,-92,-96,-94,-92,-93,-91,-92,-94,-91,-90,-91,-91,-91,-94,-96,-94,-91,-92,-94,-96,-94,-93,-91,-92,-92,-93,-94,-91,-89,-89,-90,-91,-90,-88,-85,-87,-88,-90,-91,-91,-90,-89,-92,-92,-94,-93,-92,-92,-95,-98,-96,-96,-95,-97,-98,-100,-98,-97,-98,-98,-96,-100,-100,-102,-96,-98,-98,-97,-95,-93,-89,-87,-85,-85,-84,-78,-76,-75,-74,-74,-74,-70,-67,-70,-70,-71,-67,-64,-64,-63,-65,-67,-66,-64,-64,-62,-66,-70,-69,-66,-66,-68,-68,-71,-71,-69,-67,-69,-70,-72,-70,-72,-70,-70,-70,-73,-74,-69,-66,-69,-70,-71,-71,-71,-68,-67,-73,-77,-77,-73,-73,-73,-73,-77,-79,-77,-75,-73,-76,-78,-75,-76,-73,-74,-74,-76,-76,-71,-73,-73,-74,-76,-75,-73,-73,-74,-74,-78,-77,-73,-72,-73,-75,-77,-78,-76,-74,-75,-78,-77,-77,-75,-74,-75,-77,-81,-77,-74,-74,-72,-75,-74,-75,-71,-68,-69,-68,-69,-65,-62,-61,-61,-60,-61,-60,-57,-53,-53,-54,-56,-55,-55,-53,-53,-55,-59,-58,-58,-54,-55,-57,-60,-59,-54,-48,-49,-52,-59,-62,-63,-65,-70,-73,-77,-76,-78,-74,-74,-75,-76,-78,-77,-78,-76,-78,-80,-81,-78,-77,-77,-79,-83,-81,-80,-77,-80,-80,-84,-84,-87,-90,-99,-104,-110,-111,-113,-116,-125,-132,-122,-101,-79,-48,-17,23,77,132,173,191,182,132,54,-28,-85,-104,-103,-98,-93,-89,-86,-87,-87,-90,-91,-90,-90,-88,-89,-91,-92,-92,-90,-90,-89,-90,-93,-91,-88,-87,-87,-88,-92,-91,-87,-88,-91,-90,-92,-92,-90,-89,-88,-91,-93,-91,-89,-88,-87,-89,-91,-88,-85,-86,-86,-89,-90,-86,-87,-85,-86,-87,-90,-90,-90,-87,-90,-88,-91,-89,-88,-87,-90,-91,-91,-88,-88,-84,-84,-86,-89,-89,-85,-85,-84,-84,-88,-87,-86,-85,-87,-89,-92,-91,-89,-87,-87,-90,-91,-91,-89,-87,-90,-91,-89,-91,-88,-86,-83,-85,-86,-82,-79,-76,-73,-73,-74,-74,-70,-68,-67,-69,-71,-69,-68,-66,-68,-67,-71,-68,-67,-64,-65,-67,-71,-66,-65,-65,-65,-65,-70,-67,-65,-64,-65,-67,-67,-68,-65,-65,-66,-67,-69,-71,-68,-69,-68,-71,-72,-73,-72,-71,-71,-73,-74,-73,-73,-71,-71,-72,-74,-74,-74,-72,-73,-73,-77,-77,-77,-75,-76,-78,-80,-80,-77,-77,-77,-78,-80,-81,-78,-76,-76,-78,-81,-79,-78,-77,-76,-76,-78,-75,-73,-73,-75,-75,-77,-77,-77,-73,-75,-76,-78,-77,-75,-72,-74,-76,-78,-78,-75,-73,-75,-72,-74,-71,-64,-62,-60,-60,-62,-62,-57,-54,-51,-55,-55,-54,-55,-54,-56,-59,-62,-61,-59,-57,-57,-59,-63,-63,-62,-60,-58,-59,-57,-53,-53,-58,-61,-65,-71,-73,-75,-76,-77,-77,-81,-80,-77,-77,-79,-80,-84,-82,-81,-80,-81,-82,-85,-84,-84,-80,-81,-83,-86,-86,-87,-91,-99,-108,-112,-118,-126,-126,-113,-89,-65,-38,0,49,104,144,167,171,148,98,25,-38,-85,-107,-117,-117,-110,-101,-96,-92,-90,-88,-88,-87,-90,-90,-90,-89,-87,-90,-91,-92,-93,-87,-89,-90,-90,-92,-91,-89,-89,-93,-94,-90,-91,-85,-86,-86,-91,-88,-87,-85,-87,-87,-89,-90,-88,-88,-87,-88,-88,-89,-85,-84,-83,-85,-89,-90,-87,-85,-86,-90,-90,-88,-90,-85,-87,-89,-90,-89,-88,-85,-86,-90,-90,-89,-86,-86,-87,-87,-89,-89,-86,-85,-86,-89,-87,-86,-86,-85,-84,-85,-88,-88,-87,-87,-87,-88,-91,-91,-87,-85,-86,-86,-88,-86,-86,-84,-84,-86,-85,-83,-77,-75,-73,-73,-74,-71,-73,-70,-68,-69,-69,-70,-71,-69,-67,-67,-69,-69,-68,-66,-67,-71,-72,-72,-71,-69,-68,-69,-70,-71,-68,-68,-68,-70,-75,-72,-71,-68,-69,-72,-77,-75,-73,-72,-73,-77,-79,-79,-76,-76,-75,-76,-80,-79,-75,-75,-77,-79,-80,-82,-78,-77,-76,-78,-83,-82,-80,-79,-77,-80,-84,-85,-83,-82,-82,-86,-86,-86,-84,-84,-83,-84,-84,-83,-83,-80,-78,-80,-82,-83,-81,-80,-80,-82,-84,-84,-82,-80,-83,-84,-86,-85,-82,-79,-76,-75,-74,-71,-69,-67,-67,-67,-67,-62,-60,-61,-59,-58,-60,-60,-59,-59,-61,-63,-66,-65,-65,-64,-63,-66,-71,-69,-64,-59,-61,-65,-75,-76,-77,-79,-81,-84,-87,-86,-84,-81,-80,-83,-87,-88,-90,-86,-88,-89,-90,-91,-90,-87,-88,-90,-92,-89,-88,-87,-86,-87,-92,-98,-102,-105,-110,-119,-129,-129,-111,-87,-61,-27,21,80,131,159,158,120,46,-29,-80,-104,-112,-110,-101,-93,-92,-91,-91,-90,-93,-92,-93,-94,-94,-94,-98,-97,-94,-93,-92,-93,-94,-96,-95,-93,-91,-95,-96,-92,-90,-88,-89,-89,-92,-91,-91,-93,-91,-96,-93,-93,-91,-91,-92,-95,-96,-94,-93,-91,-93,-90,-91,-90,-87,-86,-88,-89,-91,-91,-90,-88,-87,-91,-93,-91,-88,-88,-88,-88,-92,-91,-90,-86,-87,-91,-95,-95,-94,-92,-94,-93,-97,-98,-93,-92,-92,-95,-98,-100,-99,-97,-94,-97,-100,-100,-98,-95,-95,-93,-96,-91,-89,-85,-82,-81,-84,-84,-80,-75,-72,-72,-75,-72,-69,-65,-65,-68,-69,-72,-71,-71,-71,-73,-72,-71,-66,-67,-70,-69,-72,-71,-74,-68,-67,-67,-69,-70,-70,-68,-69,-72,-73,-72,-70,-70,-70,-73,-76,-75,-74,-74,-73,-73,-75,-76,-75,-74,-75,-78,-82,-80,-78,-73,-74,-75,-78,-77,-75,-73,-75,-79,-81,-81,-79,-78,-80,-80,-80,-81,-81,-78,-78,-79,-80,-82,-80,-77,-75,-79,-79,-79,-77,-76,-77,-76,-76,-76,-74,-76,-74,-76,-77,-80,-75,-73,-69,-71,-70,-70,-66,-63,-62,-61,-63,-63,-60,-55,-56,-57,-58,-57,-54,-54,-55,-55,-57,-58,-59,-57,-57,-57,-60,-60,-59,-58,-54,-54,-57,-60,-63,-64,-66,-72,-78,-79,-83,-79,-80,-79,-81,-83,-80,-81,-80,-81,-81,-82,-81,-80,-82,-84,-86,-85,-84,-81,-84,-83,-87,-89,-94,-100,-104,-109,-119,-125,-118,-98,-68,-39,-3,49,104,149,177,176,136,65,-16,-71,-100,-110,-107,-97,-91,-88,-89,-88,-89,-88,-86,-85,-83,-87,-90,-89,-86,-85,-86,-88,-92,-91,-92,-91,-88,-90,-91,-92,-90,-87,-86,-88,-92,-92,-90,-88,-87,-87,-88,-88,-85,-85,-86,-87,-89,-89,-88,-87,-91,-88,-91,-89,-90,-88,-88,-89,-90,-89,-87,-86,-85,-86,-88,-87,-85,-86,-83,-87,-90,-88,-86,-85,-84,-87,-89,-88,-87,-86,-88,-91,-92,-94,-91,-91,-93,-94,-97,-97,-95,-95,-95,-94,-96,-95,-95,-92,-93,-94,-93,-93,-90,-89,-86,-87,-87,-85,-80,-76,-73,-73,-78,-73,-73,-68,-69,-66,-70,-67,-64,-65,-64,-63,-67,-66,-64,-63,-62,-63,-65,-66,-63,-64,-64,-64,-67,-69,-66,-66,-65,-67,-69,-67,-65,-65,-67,-67,-69,-69,-69,-66,-65,-68,-67,-67,-65,-63,-63,-67,-68,-68,-66,-68,-65,-67,-71,-70,-68,-67,-68,-68,-72,-73,-71,-70,-69,-69,-71,-75,-69,-68,-71,-70,-73,-70,-71,-68,-70,-70,-70,-71,-66,-67,-67,-68,-72,-70,-68,-67,-69,-69,-72,-72,-71,-69,-70,-75,-77,-72,-71,-68,-69,-70,-73,-72,-69,-68,-68,-68,-69,-67,-65,-58,-56,-57,-59,-58,-55,-55,-52,-50,-52,-49,-46,-46,-48,-48,-50,-53,-50,-49,-47,-50,-56,-54,-48,-44,-42,-47,-57,-58,-63,-62,-62,-68,-72,-69,-69,-68,-73,-71,-76,-73,-71,-72,-71,-72,-75,-76,-74,-73,-72,-72,-75,-75,-75,-71,-73,-73,-78,-83,-86,-94,-100,-105,-116,-120,-112,-89,-61,-32,-1,46,107,159,197,210,195,143,54,-29,-82,-104,-100,-87,-78,-78,-80,-82,-84,-83,-81,-82,-83,-84,-87,-87,-85,-84,-85,-86,-87,-86,-85,-82,-83,-84,-86,-87,-86,-85,-86,-88,-88,-88,-86,-84,-85,-85,-87,-86,-87,-86,-85,-86,-87,-85,-84,-84,-84,-84,-88,-87,-86,-85,-87,-88,-89,-87,-87,-85,-85,-87,-89,-87,-89,-84,-85,-86,-88,-87,-84,-84,-84,-83,-86,-86,-86,-83,-85,-87,-90,-89,-88,-87,-88,-87,-89,-88,-88,-85,-85,-85,-86,-87,-82,-79,-79,-78,-77,-78,-76,-71,-68,-70,-69,-68,-64,-62,-60,-61,-66,-65,-64,-64,-61,-65,-65,-63,-64,-63,-63,-64,-66,-65,-64,-63,-62,-63,-66,-64,-66,-64,-64,-68,-70,-69,-67,-67,-68,-67,-69,-72,-69,-67,-69,-71,-74,-72,-71,-69,-71,-71,-73,-71,-71,-70,-71,-72,-76,-74,-73,-72,-73,-76,-76,-77,-74,-73,-72,-73,-75,-75,-74,-72,-71,-73,-74,-74,-72,-71,-70,-71,-75,-71,-71,-68,-68,-71,-73,-73,-70,-70,-70,-71,-73,-74,-70,-69,-69,-70,-72,-70,-65,-64,-59,-59,-62,-57,-56,-53,-50,-52,-53,-51,-48,-45,-46,-49,-53,-53,-53,-54,-51,-52,-55,-57,-55,-52,-45,-46,-50,-57,-60,-57,-60,-65,-69,-69,-67,-65,-64,-66,-70,-71,-72,-71,-72,-73,-75,-76,-75,-74,-74,-74,-79,-79,-77,-78,-78,-76,-78,-76,-77,-74,-76,-80,-85,-92,-100,-101,-108,-119,-123,-107,-78,-45,-5,47,102,149,170,152,90,4,-70,-106,-105,-92,-83,-79,-83,-83,-82,-78,-77,-80,-85,-85,-83,-83,-81,-85,-85,-84,-84,-84,-82,-84,-85,-85,-82,-80,-79,-80,-82,-83,-81,-79,-77,-81,-82,-80,-81,-78,-78,-78,-80,-81,-79,-80,-80,-80,-84,-83,-80,-79,-80,-82,-82,-80,-80,-77,-79,-81,-83,-82,-81,-77,-78,-79,-81,-78,-77,-78,-79,-82,-83,-84,-81,-79,-80,-83,-86,-86,-84,-82,-84,-87,-85,-86,-85,-83,-83,-85,-85,-84,-81,-79,-80,-81,-85,-82,-79,-78,-77,-76,-75,-74,-71,-70,-69,-70,-72,-70,-66,-66,-63,-68,-71,-69,-66,-65,-65,-65,-69,-68,-65,-65,-65,-68,-73,-70,-70,-71,-73,-76,-76,-75,-72,-70,-71,-75,-76,-73,-75,-72,-73,-74,-74,-75,-73,-72,-72,-75,-74,-76,-76,-76,-75,-81,-80,-79,-77,-74,-76,-77,-81,-81,-79,-80,-81,-82,-81,-81,-80,-78,-77,-79,-82,-83,-80,-80,-78,-79,-83,-80,-80,-80,-80,-80,-84,-82,-83,-81,-77,-78,-79,-78,-75,-75,-76,-78,-79,-76,-76,-69,-67,-69,-67,-69,-65,-64,-64,-67,-69,-66,-62,-62,-60,-62,-63,-60,-58,-58,-61,-61,-62,-63,-61,-60,-64,-64,-63,-60,-57,-59,-66,-69,-76,-79,-80,-79,-84,-87,-89,-89,-88,-86,-85,-87,-89,-87,-85,-83,-85,-88,-89,-90,-87,-86,-85,-85,-89,-90,-89,-88,-94,-101,-109,-114,-119,-129,-134,-128,-114,-94,-74,-58,-38,-14,17,60,103,140,164,168,138,67,-8,-67,-104,-118,-116,-106,-98,-95,-94,-97,-98,-96,-95,-94,-95,-96,-100,-101,-101,-97,-95,-97,-100,-100,-97,-94,-97,-99,-99,-99,-96,-96,-92,-92,-94,-95,-96,-95,-98,-98,-101,-100,-97,-96,-97,-96,-100,-99,-96,-95,-95,-94,-98,-95,-96,-94,-97,-96,-98,-97,-98,-98,-99,-100,-103,-103,-99,-97,-93,-95,-98,-99,-100,-99,-100,-102,-101,-102,-100,-101,-102,-105,-109,-108,-106,-106,-107,-110,-112,-109,-108,-107,-106,-108,-109,-110,-106,-105,-103,-100,-102,-98,-93,-91,-88,-88,-90,-85,-82,-80,-81,-82,-81,-80,-77,-77,-76,-78,-81,-80,-77,-76,-76,-76,-80,-79,-76,-73,-72,-77,-80,-80,-79,-76,-77,-78,-79,-79,-78,-76,-77,-79,-81,-80,-81,-79,-81,-81,-84,-82,-81,-80,-81,-84,-87,-85,-85,-82,-84,-85,-86,-86,-85,-80,-83,-85,-86,-87,-84,-83,-84,-85,-86,-87,-85,-85,-86,-87,-89,-89,-87,-85,-85,-88,-89,-88,-86,-85,-83,-87,-88,-87,-85,-84,-83,-87,-86,-87,-84,-83,-85,-85,-86,-87,-84,-84,-83,-84,-87,-86,-83,-78,-76,-77,-77,-75,-76,-70,-67,-67,-66,-67,-64,-61,-58,-60,-65,-65,-65,-64,-67,-66,-69,-69,-68,-69,-67,-65,-65,-64,-68,-69,-72,-76,-82,-84,-83,-82,-83,-86,-87,-87,-87,-87,-86,-87,-90,-92,-90,-87,-88,-89,-91,-91,-90,-90,-89,-89,-94,-93,-91,-89,-90,-89,-92,-94,-98,-104,-108,-113,-122,-128,-128,-113,-89,-63,-32,12,68,120,157,170,148,91,16,-52,-97,-114,-116,-111,-101,-99,-95,-97,-97,-98,-97,-94,-95,-98,-99,-100,-101,-98,-99,-100,-99,-99,-99,-95,-95,-98,-99,-98,-96,-96,-96,-98,-100,-100,-96,-95,-97,-96,-101,-97,-96,-93,-96,-98,-99,-98,-97,-97,-95,-98,-99,-100,-98,-96,-97,-99,-100,-97,-97,-95,-96,-97,-99,-100,-98,-97,-97,-99,-100,-99,-97,-95,-94,-97,-98,-96,-100,-97,-95,-98,-101,-99,-100,-99,-100,-104,-106,-105,-103,-101,-103,-103,-106,-105,-102,-101,-101,-101,-106,-104,-103,-98,-98,-99,-101,-98,-92,-89,-86,-86,-86,-81,-82,-78,-80,-79,-80,-78,-77,-75,-75,-76,-75,-75,-73,-73,-73,-73,-78,-75,-74,-73,-73,-74,-78,-76,-73,-73,-74,-78,-78,-78,-76,-74,-76,-77,-80,-79,-78,-77,-78,-79,-81,-82,-79,-78,-80,-81,-79,-81,-78,-76,-76,-77,-79,-79,-79,-79,-78,-80,-81,-80,-80,-79,-79,-80,-84,-81,-83,-78,-81,-81,-83,-83,-81,-79,-79,-81,-84,-82,-80,-77,-77,-79,-83,-82,-80,-77,-78,-78,-82,-82,-79,-81,-79,-82,-83,-82,-81,-80,-79,-80,-83,-82,-79,-78,-79,-77,-76,-73,-69,-64,-63,-63,-68,-68,-63,-62,-62,-64,-63,-63,-59,-58,-58,-57,-61,-61,-60,-60,-62,-65,-67,-65,-64,-62,-63,-63,-62,-56,-54,-57,-63,-68,-73,-73,-75,-77,-78,-85,-87,-85,-83,-82,-81,-83,-86,-86,-84,-83,-82,-83,-88,-86,-83,-82,-84,-85,-87,-86,-87,-85,-88,-93,-103,-110,-111,-114,-121,-128,-130,-119,-94,-65,-36,-1,46,103,151,177,186,167,113,32,-40,-83,-107,-112,-112,-104,-97,-89,-87,-88,-89,-91,-91,-90,-91,-94,-97,-97,-96,-95,-96,-96,-98,-98,-98,-96,-94,-96,-99,-98,-96,-92,-92,-91,-96,-96,-92,-91,-91,-92,-98,-95,-95,-93,-90,-93,-95,-94,-93,-91,-90,-91,-94,-95,-91,-89,-89,-90,-94,-93,-91,-90,-89,-92,-95,-95,-93,-90,-90,-95,-94,-94,-94,-92,-90,-94,-94,-95,-93,-90,-89,-93,-94,-94,-91,-93,-90,-92,-93,-95,-92,-91,-92,-94,-96,-96,-95,-93,-93,-95,-95,-97,-94,-91,-92,-93,-94,-95,-90,-88,-86,-86,-87,-84,-79,-77,-75,-74,-74,-73,-71,-68,-70,-72,-75,-72,-70,-69,-69,-72,-73,-73,-71,-71,-71,-72,-75,-73,-73,-71,-70,-72,-72,-71,-71,-67,-69,-70,-74,-74,-74,-72,-73,-76,-77,-77,-73,-73,-72,-73,-76,-76,-74,-71,-71,-73,-74,-75,-73,-70,-71,-76,-77,-76,-73,-74,-76,-75,-80,-78,-78,-75,-75,-78,-80,-81,-79,-79,-79,-80,-80,-81,-78,-75,-75,-78,-79,-77,-77,-77,-76,-76,-80,-78,-78,-75,-76,-78,-80,-78,-78,-77,-77,-78,-79,-78,-78,-75,-76,-75,-77,-77,-76,-75,-74,-76,-75,-76,-73,-69,-68,-70,-69,-65,-63,-63,-61,-63,-63,-61,-58,-56,-54,-54,-57,-56,-56,-55,-55,-58,-60,-58,-57,-55,-55,-58,-57,-53,-50,-52,-58,-63,-68,-74,-75,-74,-74,-78,-80,-80,-78,-77,-78,-81,-83,-81,-81,-80,-77,-79,-83,-82,-80,-79,-81,-84,-84,-85,-83,-82,-83,-88,-97,-104,-108,-110,-116,-126,-136,-139,-134,-129,-119,-105,-93,-78,-66,-45,-10,37,88,134,162,165,132,71,-7,-70,-100,-106,-101,-94,-91,-90,-90,-87,-86,-88,-90,-91,-91,-88,-87,-88,-90,-90,-88,-85,-85,-85,-91,-91,-86,-85,-88,-88,-90,-89,-87,-85,-84,-86,-87,-86,-87,-86,-86,-89,-90,-90,-87,-86,-85,-85,-87,-87,-83,-84,-86,-87,-89,-89,-88,-88,-88,-88,-88,-90,-87,-86,-85,-84,-88,-89,-84,-84,-84,-85,-87,-85,-82,-82,-84,-86,-88,-87,-89,-83,-86,-84,-87,-87,-86,-85,-85,-86,-89,-88,-88,-85,-88,-89,-92,-92,-89,-89,-87,-89,-91,-92,-87,-86,-87,-88,-89,-88,-83,-82,-78,-79,-79,-79,-76,-72,-73,-75,-78,-77,-71,-69,-69,-68,-72,-72,-72,-67,-68,-69,-72,-72,-71,-70,-70,-73,-74,-76,-75,-71,-72,-73,-74,-73,-71,-69,-70,-71,-75,-76,-73,-70,-71,-73,-75,-74,-73,-74,-74,-75,-77,-78,-76,-76,-75,-76,-78,-79,-78,-76,-75,-77,-81,-78,-79,-75,-78,-78,-82,-81,-80,-77,-78,-81,-81,-80,-79,-76,-76,-77,-78,-78,-77,-76,-79,-80,-81,-83,-79,-78,-78,-75,-78,-78,-76,-76,-77,-78,-82,-80,-78,-76,-77,-78,-76,-72,-70,-65,-66,-66,-66,-69,-62,-59,-57,-56,-56,-55,-53,-55,-54,-55,-60,-59,-57,-59,-60,-65,-65,-61,-57,-57,-62,-68,-74,-76,-78,-76,-76,-77,-82,-81,-79,-78,-78,-82,-86,-83,-84,-81,-81,-81,-81,-82,-81,-82,-83,-85,-85,-83,-83,-81,-81,-82,-85,-87,-89,-97,-104,-109,-116,-123,-121,-105,-76,-46,-10,41,100,146,167,151,96,15,-55,-94,-109,-109,-101,-94,-91,-88,-88,-89,-89,-90,-89,-90,-88,-90,-92,-93,-89,-89,-90,-91,-93,-94,-92,-90,-91,-91,-93,-92,-88,-87,-88,-90,-91,-90,-89,-89,-89,-91,-91,-89,-88,-88,-91,-95,-93,-93,-91,-88,-88,-89,-89,-88,-88,-87,-88,-91,-93,-94,-95,-90,-89,-88,-90,-92,-90,-87,-87,-91,-92,-93,-92,-90,-91,-91,-93,-91,-91,-89,-93,-94,-96,-97,-98,-97,-96,-99,-103,-103,-101,-97,-96,-99,-101,-99,-99,-95,-92,-93,-93,-89,-86,-82,-83,-82,-82,-81,-76,-73,-73,-74,-74,-72,-71,-69,-69,-66,-69,-69,-67,-68,-67,-66,-69,-68,-67,-64,-66,-67,-70,-69,-66,-64,-66,-68,-69,-70,-67,-65,-68,-69,-72,-74,-68,-66,-68,-68,-71,-70,-72,-68,-67,-70,-72,-74,-72,-71,-70,-73,-75,-72,-74,-72,-72,-74,-76,-76,-74,-70,-70,-71,-72,-70,-70,-68,-69,-71,-73,-73,-72,-70,-72,-73,-75,-76,-75,-72,-71,-74,-76,-73,-70,-71,-71,-71,-74,-72,-70,-67,-69,-70,-71,-69,-65,-62,-62,-61,-61,-61,-57,-55,-53,-53,-52,-49,-48,-45,-48,-47,-49,-52,-48,-46,-49,-51,-50,-51,-52,-52,-48,-48,-49,-50,-54,-57,-61,-66,-69,-69,-71,-71,-72,-73,-73,-74,-70,-70,-71,-73,-75,-75,-72,-71,-71,-72,-76,-77,-75,-74,-77,-82,-89,-98,-101,-105,-116,-119,-109,-82,-52,-17,24,78,127,169,186,172,115,32,-43,-91,-106,-108,-107,-110,-107,-102,-92,-82,-82,-85,-86,-86,-85,-82,-82,-85,-86,-85,-84,-81,-82,-82,-82,-84,-81,-79,-79,-82,-83,-84,-82,-80,-82,-84,-84,-85,-83,-83,-81,-83,-84,-86,-85,-81,-82,-82,-84,-83,-80,-77,-79,-79,-81,-81,-80,-78,-79,-81,-84,-84,-81,-78,-80,-82,-84,-85,-82,-80,-79,-81,-82,-84,-80,-81,-81,-82,-85,-83,-83,-80,-81,-83,-86,-84,-82,-84,-85,-84,-88,-86,-87,-86,-86,-87,-88,-86,-84,-82,-82,-79,-77,-76,-72,-68,-66,-67,-67,-66,-64,-64,-64,-64,-62,-63,-60,-59,-59,-61,-61,-61,-59,-57,-60,-59,-59,-60,-58,-56,-59,-61,-62,-64,-60,-60,-62,-61,-64,-65,-65,-63,-61,-63,-64,-66,-65,-61,-65,-64,-65,-67,-63,-64,-64,-66,-68,-69,-69,-65,-65,-69,-70,-70,-69,-65,-66,-68,-68,-67,-67,-64,-65,-64,-68,-67,-66,-68,-67,-68,-69,-71,-68,-66,-68,-68,-69,-70,-67,-69,-67,-68,-67,-69,-66,-64,-65,-64,-67,-70,-68,-65,-64,-67,-69,-66,-66,-61,-61,-57,-57,-55,-56,-53,-52,-51,-50,-49,-45,-42,-38,-44,-44,-46,-46,-44,-47,-49,-52,-50,-48,-46,-46,-49,-54,-57,-51,-46,-43,-42,-45,-52,-57,-56,-61,-63,-67,-69,-67,-67,-68,-68,-71,-71,-71,-69,-73,-77,-76,-77,-75,-73,-74,-75,-76,-76,-75,-74,-75,-78,-85,-91,-97,-97,-104,-111,-117,-106,-77,-47,-19,23,73,127,168,185,172,119,39,-44,-89,-101,-96,-87,-83,-81,-78,-78,-79,-80,-82,-83,-80,-79,-81,-81,-81,-81,-79,-76,-78,-81,-81,-82,-81,-79,-79,-81,-82,-81,-81,-78,-80,-81,-84,-85,-81,-80,-79,-79,-80,-80,-80,-77,-78,-79,-79,-80,-77,-77,-79,-79,-80,-80,-79,-78,-79,-80,-82,-82,-81,-78,-77,-79,-81,-82,-80,-76,-77,-78,-79,-79,-77,-77,-78,-80,-79,-80,-78,-77,-79,-81,-81,-84,-82,-79,-81,-82,-85,-84,-85,-80,-81,-81,-79,-81,-79,-77,-79,-80,-79,-79,-76,-73,-75,-74,-74,-75,-71,-66,-67,-69,-70,-67,-64,-61,-62,-63,-64,-64,-62,-61,-62,-59,-61,-60,-58,-57,-58,-59,-60,-61,-62,-62,-61,-60,-63,-66,-64,-61,-62,-64,-63,-68,-64,-63,-65,-66,-66,-67,-63,-63,-62,-64,-64,-64,-66,-64,-64,-66,-68,-66,-67,-67,-66,-68,-69,-70,-69,-66,-67,-69,-70,-70,-70,-67,-68,-68,-72,-71,-72,-69,-68,-70,-71,-70,-69,-67,-66,-69,-70,-71,-70,-67,-67,-67,-69,-71,-71,-70,-67,-68,-70,-72,-69,-65,-67,-69,-70,-68,-65,-61,-58,-53,-51,-55,-52,-50,-53,-53,-51,-50,-50,-45,-45,-48,-50,-50,-50,-49,-49,-50,-49,-51,-50,-49,-53,-53,-55,-55,-49,-42,-41,-47,-55,-60,-58,-60,-66,-69,-70,-73,-71,-68,-70,-72,-75,-74,-74,-72,-73,-75,-76,-77,-72,-72,-72,-72,-76,-78,-79,-75,-81,-90,-98,-104,-109,-114,-120,-113,-96,-67,-34,8,63,114,146,154,131,76,0,-62,-97,-104,-95,-84,-82,-85,-85,-86,-86,-82,-84,-88,-87,-89,-88,-85,-83,-85,-88,-91,-90,-86,-85,-86,-89,-88,-86,-83,-83,-86,-88,-89,-87,-83,-84,-88,-87,-89,-85,-84,-86,-86,-88,-87,-87,-85,-86,-88,-88,-89,-88,-85,-86,-86,-87,-87,-87,-86,-87,-87,-86,-85,-84,-81,-84,-86,-87,-89,-85,-82,-84,-87,-88,-89,-87,-86,-86,-88,-92,-95,-90,-88,-88,-88,-95,-92,-90,-88,-88,-90,-92,-94,-93,-90,-90,-93,-91,-92,-90,-87,-87,-86,-87,-86,-81,-81,-77,-77,-77,-78,-76,-74,-75,-74,-72,-73,-72,-69,-72,-70,-70,-71,-70,-70,-68,-71,-75,-76,-73,-70,-72,-74,-74,-76,-77,-74,-75,-78,-80,-79,-77,-72,-73,-75,-75,-77,-76,-77,-77,-78,-79,-80,-78,-76,-75,-77,-79,-83,-81,-78,-78,-81,-82,-83,-81,-80,-82,-78,-80,-81,-79,-79,-80,-81,-82,-82,-79,-79,-79,-80,-83,-83,-81,-78,-78,-80,-79,-81,-79,-79,-80,-83,-84,-86,-84,-83,-82,-82,-83,-81,-78,-75,-77,-78,-78,-78,-77,-76,-73,-74,-74,-74,-69,-67,-68,-68,-68,-67,-64,-61,-61,-60,-62,-65,-63,-62,-64,-65,-63,-64,-65,-64,-65,-66,-64,-61,-61,-64,-72,-79,-78,-83,-82,-81,-84,-87,-89,-91,-87,-85,-84,-87,-86,-91,-89,-86,-86,-87,-91,-90,-88,-86,-83,-89,-93,-90,-89,-90,-99,-107,-111,-115,-121,-128,-126,-115,-92,-65,-30,17,70,117,147,154,126,68,-9,-72,-104,-114,-111,-102,-99,-98,-100,-98,-95,-96,-94,-96,-97,-96,-97,-94,-95,-94,-96,-97,-92,-91,-94,-94,-95,-97,-93,-91,-90,-92,-92,-93,-94,-92,-94,-97,-101,-100,-97,-96,-97,-96,-96,-97,-95,-93,-93,-94,-94,-95,-94,-94,-95,-95,-98,-96,-97,-95,-95,-98,-99,-99,-97,-96,-94,-98,-98,-98,-97,-94,-95,-97,-97,-100,-96,-95,-95,-96,-100,-101,-99,-97,-98,-104,-105,-106,-105,-103,-104,-108,-107,-108,-107,-105,-106,-106,-104,-102,-100,-95,-96,-95,-95,-93,-90,-88,-86,-84,-84,-85,-80,-77,-77,-77,-78,-75,-75,-74,-72,-74,-75,-74,-71,-69,-70,-70,-73,-73,-72,-71,-72,-74,-75,-75,-75,-72,-74,-76,-80,-80,-78,-76,-76,-75,-77,-77,-75,-73,-72,-74,-78,-77,-76,-75,-74,-78,-80,-81,-79,-76,-77,-78,-79,-81,-78,-78,-81,-80,-80,-81,-80,-79,-79,-81,-83,-82,-82,-80,-80,-80,-83,-82,-80,-77,-79,-80,-83,-81,-80,-77,-77,-78,-79,-80,-78,-77,-77,-79,-80,-80,-79,-80,-80,-82,-81,-81,-78,-78,-77,-77,-80,-76,-76,-69,-68,-66,-65,-64,-63,-62,-62,-62,-63,-61,-55,-56,-55,-54,-57,-59,-59,-57,-58,-62,-64,-62,-60,-57,-60,-63,-62,-58,-55,-52,-56,-64,-66,-70,-70,-71,-75,-77,-80,-86,-83,-79,-77,-81,-83,-82,-82,-80,-80,-82,-81,-83,-80,-79,-80,-81,-82,-81,-79,-79,-80,-81,-82,-84,-84,-83,-96,-104,-108,-109,-110,-119,-123,-118,-98,-69,-38,2,50,103,145,170,175,138,64,-22,-81,-106,-103,-91,-86,-84,-84,-88,-86,-86,-85,-86,-89,-90,-88,-84,-85,-87,-86,-89,-86,-83,-85,-84,-88,-89,-86,-84,-84,-85,-86,-89,-84,-81,-84,-86,-88,-89,-86,-83,-86,-88,-88,-88,-86,-86,-84,-86,-88,-90,-88,-84,-85,-84,-86,-88,-85,-84,-80,-82,-84,-86,-84,-81,-82,-86,-88,-87,-84,-83,-86,-86,-87,-87,-87,-85,-87,-87,-88,-88,-87,-85,-85,-89,-88,-91,-89,-88,-88,-90,-87,-89,-87,-86,-86,-86,-88,-88,-86,-84,-83,-83,-82,-81,-77,-74,-73,-73,-73,-70,-69,-65,-65,-65,-68,-67,-63,-60,-60,-63,-60,-61,-61,-59,-62,-62,-63,-65,-63,-60,-62,-61,-64,-64,-62,-62,-62,-62,-64,-65,-64,-60,-58,-62,-64,-65,-60,-60,-60,-61,-65,-67,-65,-62,-65,-66,-66,-68,-66,-63,-64,-66,-68,-68,-67,-65,-64,-67,-67,-68,-68,-65,-67,-68,-70,-72,-71,-67,-67,-71,-71,-72,-70,-70,-69,-70,-72,-70,-68,-67,-68,-68,-69,-70,-69,-65,-65,-63,-68,-68,-65,-66,-66,-67,-67,-69,-68,-66,-66,-69,-70,-68,-63,-61,-57,-57,-56,-57,-54,-49,-51,-56,-57,-58,-54,-51,-49,-48,-52,-50,-47,-46,-45,-49,-49,-51,-50,-51,-48,-50,-51,-55,-51,-48,-45,-44,-46,-52,-57,-58,-59,-64,-69,-70,-69,-68,-69,-73,-74,-75,-73,-73,-73,-72,-74,-75,-75,-75,-73,-75,-75,-77,-74,-72,-71,-74,-75,-80,-84,-89,-96,-101,-108,-115,-119,-117,-104,-81,-57,-29,10,63,117,154,170,163,120,56,-20,-74,-99,-100,-91,-81,-78,-80,-82,-82,-78,-75,-77,-79,-83,-82,-80,-79,-77,-78,-81,-82,-78,-79,-78,-80,-85,-82,-79,-78,-80,-80,-81,-82,-79,-79,-78,-81,-80,-79,-79,-77,-78,-79,-81,-80,-77,-75,-77,-78,-81,-80,-78,-80,-81,-82,-80,-83,-81,-78,-77,-80,-82,-82,-78,-76,-74,-77,-79,-78,-75,-77,-78,-78,-79,-82,-79,-76,-80,-80,-80,-82,-82,-80,-82,-80,-83,-85,-83,-80,-81,-81,-83,-84,-81,-79,-78,-80,-83,-80,-78,-76,-75,-77,-76,-77,-73,-72,-69,-69,-69,-68,-66,-62,-62,-63,-65,-64,-61,-59,-59,-59,-60,-62,-59,-57,-57,-59,-62,-61,-61,-59,-58,-58,-61,-61,-59,-58,-61,-62,-64,-65,-64,-60,-63,-63,-65,-65,-64,-62,-63,-66,-68,-67,-65,-63,-64,-65,-66,-68,-65,-62,-63,-65,-66,-67,-69,-67,-67,-68,-69,-69,-69,-67,-67,-68,-71,-69,-70,-67,-66,-67,-68,-70,-67,-66,-67,-68,-69,-71,-69,-66,-67,-68,-70,-72,-71,-69,-68,-70,-69,-71,-69,-66,-65,-67,-67,-69,-66,-65,-65,-66,-66,-62,-58,-54,-53,-56,-60,-59,-54,-48,-47,-47,-47,-47,-46,-43,-44,-46,-46,-51,-49,-47,-48,-49,-54,-55,-54,-52,-49,-46,-45,-45,-40,-40,-46,-53,-59,-61,-62,-62,-64,-68,-69,-72,-71,-68,-68,-70,-72,-72,-73,-72,-75,-76,-77,-76,-75,-74,-75,-74,-75,-77,-73,-74,-77,-80,-88,-92,-95,-95,-104,-116,-121,-109,-89,-63,-36,0,47,99,139,158,152,112,49,-22,-72,-95,-102,-98,-93,-88,-87,-83,-85,-83,-85,-87,-79,-77,-77,-80,-82,-84,-82,-81,-82,-80,-84,-87,-84,-81,-81,-83,-83,-84,-84,-80,-82,-83,-85,-86,-83,-83,-82,-83,-84,-84,-83,-79,-80,-81,-83,-83,-84,-83,-85,-85,-87,-87,-85,-83,-83,-84,-85,-86,-84,-82,-82,-82,-83,-85,-81,-80,-80,-82,-83,-83,-81,-79,-77,-79,-79,-83,-79,-78,-79,-81,-83,-85,-83,-83,-83,-85,-87,-89,-89,-89,-89,-88,-90,-87,-86,-85,-87,-89,-89,-86,-85,-84,-85,-83,-83,-82,-81,-75,-74,-73,-73,-72,-69,-68,-66,-67,-67,-66,-66,-63,-63,-63,-63,-65,-64,-64,-60,-64,-66,-67,-64,-61,-63,-65,-67,-68,-68,-64,-67,-67,-69,-70,-66,-66,-66,-67,-67,-69,-69,-65,-69,-66,-68,-69,-68,-70,-68,-68,-70,-74,-71,-68,-69,-70,-73,-74,-74,-71,-72,-71,-72,-75,-74,-71,-69,-71,-73,-72,-72,-72,-73,-75,-76,-74,-72,-68,-66,-68,-68,-73,-71,-70,-72,-74,-75,-74,-73,-72,-71,-72,-71,-74,-71,-68,-69,-71,-72,-73,-71,-66,-66,-64,-61,-60,-55,-54,-57,-59,-57,-54,-52,-50,-49,-49,-51,-53,-50,-49,-53,-53,-55,-58,-57,-57,-57,-58,-56,-55,-57,-57,-60,-66,-70,-75,-72,-70,-71,-72,-75,-73,-72,-73,-76,-76,-78,-80,-78,-76,-76,-76,-80,-80,-78,-76,-76,-76,-78,-78,-77,-75,-79,-86,-94,-98,-101,-107,-116,-118,-103,-77,-45,-12,31,83,127,155,164,142,75,-2,-60,-92,-102,-99,-91,-85,-82,-86,-82,-79,-78,-80,-82,-85,-83,-82,-82,-83,-84,-85,-83,-82,-82,-82,-83,-86,-86,-85,-84,-85,-86,-87,-85,-85,-85,-87,-88,-87,-85,-84,-84,-83,-85,-86,-84,-83,-86,-84,-87,-87,-85,-85,-86,-86,-90,-88,-86,-81,-84,-87,-86,-87,-87,-84,-85,-87,-85,-84,-83,-82,-82,-86,-86,-88,-87,-85,-86,-91,-91,-94,-93,-93,-93,-94,-98,-97,-94,-93,-93,-93,-95,-95,-92,-93,-93,-95,-93,-95,-93,-90,-88,-87,-86,-83,-79,-78,-77,-73,-73,-72,-67,-65,-66,-69,-66,-65,-64,-62,-63,-64,-64,-67,-64,-63,-62,-64,-63,-64,-65,-64,-64,-65,-66,-67,-66,-61,-63,-66,-67,-68,-70,-66,-65,-65,-70,-70,-69,-66,-64,-69,-68,-70,-68,-65,-66,-68,-70,-72,-71,-69,-70,-71,-72,-74,-72,-68,-69,-71,-71,-71,-70,-68,-69,-71,-71,-71,-73,-71,-71,-72,-75,-73,-71,-70,-70,-71,-73,-74,-72,-71,-71,-71,-72,-72,-72,-67,-67,-71,-72,-73,-69,-67,-69,-72,-72,-72,-69,-61,-59,-57,-57,-57,-55,-53,-52,-48,-49,-51,-46,-46,-49,-51,-52,-51,-52,-51,-51,-53,-54,-56,-57,-55,-49,-47,-47,-54,-58,-58,-62,-66,-70,-71,-71,-71,-72,-74,-77,-77,-74,-74,-74,-75,-77,-79,-74,-72,-73,-74,-75,-75,-74,-73,-74,-81,-91,-100,-102,-104,-114,-119,-111,-89,-55,-21,20,72,126,166,197,204,181,131,74,21,-16,-44,-68,-87,-102,-114,-116,-104,-92,-83,-83,-85,-83,-81,-83,-84,-87,-87,-86,-84,-85,-85,-87,-87,-83,-81,-82,-83,-82,-82,-83,-80,-81,-84,-86,-87,-84,-81,-85,-86,-86,-85,-83,-82,-81,-84,-85,-86,-83,-81,-81,-82,-84,-85,-82,-80,-83,-80,-82,-82,-80,-78,-78,-81,-82,-85,-83,-81,-80,-82,-85,-84,-83,-81,-82,-80,-84,-83,-85,-81,-84,-85,-86,-88,-83,-84,-85,-84,-88,-85,-85,-85,-85,-86,-87,-89,-85,-83,-83,-83,-82,-80,-79,-74,-72,-72,-69,-69,-69,-66,-63,-65,-66,-67,-64,-61,-61,-62,-65,-66,-63,-64,-62,-64,-63,-65,-64,-62,-62,-63,-63,-65,-62,-61,-62,-64,-65,-65,-64,-63,-65,-65,-68,-68,-67,-67,-66,-68,-70,-69,-68,-67,-66,-67,-69,-69,-69,-67,-68,-69,-71,-70,-70,-68,-69,-72,-73,-74,-71,-71,-72,-73,-74,-75,-71,-70,-72,-73,-73,-73,-70,-69,-70,-69,-73,-72,-72,-71,-73,-72,-72,-73,-73,-70,-69,-71,-71,-72,-70,-67,-68,-67,-67,-67,-62,-58,-54,-56,-59,-59,-57,-54,-52,-51,-51,-52,-50,-51,-49,-48,-50,-52,-52,-51,-52,-53,-54,-55,-53,-52,-50,-48,-46,-53,-57,-59,-67,-66,-70,-74,-72,-71,-72,-73,-75,-76,-72,-72,-73,-73,-75,-76,-74,-76,-75,-75,-78,-77,-75,-76,-77,-83,-94,-101,-104,-107,-115,-119,-106,-83,-50,-13,33,88,134,168,187,198,182,138,76,0,-61,-95,-103,-101,-94,-89,-83,-83,-84,-84,-85,-87,-83,-82,-82,-83,-83,-84,-82,-82,-80,-82,-85,-87,-84,-83,-81,-82,-86,-85,-85,-80,-83,-82,-83,-85,-83,-81,-81,-82,-82,-82,-82,-78,-77,-78,-81,-82,-79,-78,-79,-81,-80,-81,-82,-79,-78,-79,-80,-81,-80,-78,-78,-81,-81,-83,-80,-78,-79,-80,-83,-82,-78,-77,-80,-80,-84,-81,-80,-80,-79,-80,-84,-87,-83,-79,-80,-84,-85,-84,-83,-80,-81,-83,-84,-84,-81,-81,-79,-79,-79,-79,-77,-75,-74,-71,-74,-72,-69,-67,-64,-67,-67,-68,-65,-64,-63,-65,-67,-67,-63,-65,-64,-66,-66,-67,-66,-64,-66,-64,-65,-65,-66,-64,-64,-65,-67,-68,-66,-64,-66,-71,-72,-72,-71,-70,-71,-70,-73,-72,-74,-71,-73,-73,-73,-77,-75,-74,-72,-73,-75,-78,-77,-76,-75,-77,-79,-78,-79,-75,-78,-77,-80,-78,-76,-73,-73,-75,-75,-77,-77,-73,-73,-75,-80,-78,-76,-74,-75,-77,-79,-78,-78,-77,-78,-77,-77,-78,-78,-73,-71,-73,-74,-75,-75,-73,-74,-71,-69,-66,-64,-60,-60,-64,-65,-62,-61,-58,-55,-55,-58,-57,-55,-56,-57,-60,-60,-59,-55,-55,-58,-60,-59,-58,-53,-56,-62,-67,-71,-76,-79,-76,-80,-82,-83,-83,-81,-77,-80,-81,-85,-82,-79,-75,-77,-79,-80,-80,-78,-78,-78,-80,-82,-82,-82,-85,-85,-84,-88,-89,-91,-96,-101,-106,-113,-124,-126,-117,-98,-74,-50,-16,36,91,130,153,147,108,39,-27,-77,-105,-113,-106,-98,-93,-91,-92,-94,-93,-92,-89,-87,-88,-88,-90,-91,-89,-91,-92,-91,-92,-89,-87,-88,-90,-91,-90,-92,-89,-90,-90,-91,-94,-92,-91,-89,-92,-91,-91,-91,-92,-93,-93,-95,-93,-90,-89,-89,-91,-92,-91,-91,-88,-88,-90,-91,-92,-89,-87,-89,-91,-93,-97,-95,-91,-89,-89,-90,-91,-90,-87,-89,-90,-90,-92,-90,-88,-89,-92,-95,-95,-93,-92,-94,-96,-100,-100,-97,-97,-97,-98,-99,-101,-98,-100,-101,-101,-102,-103,-101,-100,-99,-101,-100,-100,-96,-91,-85,-85,-83,-81,-79,-76,-77,-76,-77,-79,-77,-74,-71,-71,-74,-74,-71,-69,-68,-69,-68,-69,-68,-67,-70,-70,-70,-71,-68,-67,-69,-67,-67,-67,-65,-63,-64,-68,-70,-70,-70,-67,-70,-73,-73,-74,-74,-71,-71,-72,-74,-74,-74,-71,-71,-71,-76,-74,-73,-70,-70,-73,-72,-75,-73,-72,-72,-76,-78,-77,-76,-75,-75,-77,-79,-81,-77,-73,-76,-77,-75,-75,-74,-72,-72,-74,-76,-76,-74,-71,-73,-74,-76,-76,-75,-73,-74,-77,-80,-78,-77,-73,-73,-77,-76,-77,-77,-73,-72,-71,-70,-70,-64,-62,-60,-61,-61,-61,-58,-55,-57,-55,-54,-54,-53,-51,-53,-57,-57,-60,-59,-56,-55,-58,-61,-62,-56,-49,-50,-55,-60,-65,-67,-69,-72,-72,-74,-77,-78,-77,-77,-77,-78,-80,-81,-79,-77,-79,-80,-82,-82,-78,-79,-79,-80,-80,-78,-74,-74,-76,-76,-79,-77,-76,-80,-85,-92,-99,-103,-104,-112,-119,-113,-93,-62,-33,6,59,110,151,172,163,115,41,-36,-88,-105,-104,-95,-88,-86,-88,-86,-83,-81,-84,-85,-87,-85,-83,-83,-84,-84,-85,-83,-80,-82,-80,-84,-83,-83,-80,-82,-82,-85,-87,-84,-82,-81,-84,-87,-85,-83,-84,-83,-82,-86,-86,-84,-81,-80,-82,-83,-83,-81,-80,-80,-82,-81,-83,-80,-80,-83,-84,-81,-84,-83,-82,-82,-84,-85,-83,-83,-82,-81,-82,-86,-85,-82,-81,-81,-82,-84,-85,-85,-83,-85,-86,-87,-89,-88,-90,-90,-92,-93,-93,-92,-91,-91,-90,-92,-92,-89,-86,-86,-89,-87,-85,-80,-77,-75,-75,-76,-74,-70,-66,-65,-65,-64,-63,-63,-59,-60,-59,-62,-60,-58,-56,-57,-57,-58,-60,-57,-56,-57,-56,-59,-61,-58,-55,-58,-59,-60,-63,-61,-58,-60,-61,-62,-62,-62,-60,-59,-61,-64,-63,-62,-60,-58,-60,-64,-64,-60,-59,-59,-62,-64,-63,-61,-62,-64,-65,-62,-65,-62,-62,-62,-65,-66,-66,-64,-60,-62,-60,-63,-65,-62,-59,-60,-62,-64,-66,-63,-60,-62,-65,-66,-68,-65,-64,-64,-66,-67,-66,-67,-63,-63,-64,-64,-66,-65,-65,-65,-64,-67,-66,-62,-59,-59,-62,-62,-62,-58,-57,-54,-52,-50,-52,-53,-50,-49,-50,-49,-49,-45,-39,-40,-41,-44,-45,-44,-43,-47,-44,-46,-47,-46,-46,-45,-44,-39,-36,-37,-42,-48,-51,-53,-57,-60,-60,-60,-63,-67,-68,-68,-63,-65,-66,-68,-70,-66,-64,-67,-66,-68,-69,-67,-68,-66,-68,-70,-70,-71,-70,-71,-79,-86,-95,-97,-99,-110,-114,-109,-88,-60,-27,8,57,113,161,189,190,148,68,-15,-74,-96,-93,-81,-74,-73,-76,-75,-72,-71,-74,-75,-75,-73,-72,-72,-75,-78,-78,-77,-75,-76,-74,-77,-76,-76,-74,-74,-77,-79,-80,-77,-73,-75,-77,-77,-78,-77,-75,-76,-76,-78,-77,-76,-75,-78,-78,-76,-76,-73,-70,-73,-73,-73,-75,-73,-74,-75,-75,-76,-77,-76,-73,-72,-72,-74,-75,-73,-71,-71,-73,-73,-73,-74,-71,-73,-72,-73,-74,-72,-69,-68,-72,-73,-75,-73,-72,-73,-74,-78,-78,-77,-73,-73,-74,-76,-76,-75,-72,-71,-71,-74,-75,-71,-67,-66,-64,-65,-64,-61,-59,-58,-58,-60,-59,-56,-55,-54,-53,-55,-56,-54,-52,-54,-53,-56,-58,-56,-53,-53,-53,-54,-57,-53,-51,-51,-54,-54,-56,-53,-52,-53,-55,-57,-58,-56,-56,-57,-58,-59,-60,-59,-57,-57,-59,-60,-61,-61,-60,-58,-58,-63,-62,-58,-56,-56,-58,-61,-59,-59,-58,-61,-61,-64,-62,-63,-60,-62,-62,-65,-64,-64,-61,-63,-62,-65,-67,-61,-62,-60,-62,-62,-62,-62,-59,-57,-59,-61,-62,-62,-60,-57,-59,-61,-61,-60,-59,-59,-61,-62,-64,-63,-60,-59,-60,-59,-60,-56,-52,-50,-48,-49,-48,-46,-44,-42,-39,-41,-39,-37,-36,-35,-37,-41,-43,-41,-41,-40,-41,-45,-46,-45,-39,-34,-35,-43,-49,-50,-48,-52,-56,-61,-63,-63,-62,-61,-62,-64,-67,-64,-61,-62,-62,-66,-68,-66,-62,-65,-67,-68,-69,-67,-65,-65,-68,-68,-69,-73,-77,-84,-89,-94,-102,-107,-99,-79,-55,-30,6,56,108,150,178,194,204,199,174,133,77,18,-36,-74,-93,-95,-91,-88,-79,-74,-72,-70,-71,-71,-72,-71,-71,-70,-70,-73,-73,-72,-71,-71,-74,-75,-76,-74,-74,-72,-73,-77,-78,-73,-72,-72,-71,-73,-75,-73,-72,-72,-72,-74,-74,-72,-70,-71,-72,-73,-76,-72,-70,-72,-70,-76,-77,-74,-71,-71,-71,-75,-74,-69,-69,-70,-71,-73,-71,-68,-66,-68,-71,-73,-72,-67,-68,-70,-73,-74,-74,-74,-73,-72,-71,-75,-76,-74,-72,-73,-76,-77,-77,-78,-76,-77,-78,-81,-79,-76,-72,-70,-72,-72,-72,-68,-65,-64,-62,-64,-67,-63,-61,-63,-61,-63,-62,-56,-58,-57,-59,-60,-57,-57,-58,-58,-59,-60,-63,-60,-58,-56,-59,-61,-60,-60,-58,-60,-62,-63,-64,-62,-64,-63,-65,-66,-67,-66,-65,-62,-64,-66,-68,-69,-67,-66,-67,-69,-67,-66,-65,-65,-67,-67,-67,-68,-66,-67,-69,-70,-72,-71,-69,-67,-68,-71,-71,-69,-67,-68,-70,-71,-71,-71,-69,-69,-70,-71,-71,-69,-70,-67,-67,-71,-71,-70,-70,-68,-71,-75,-73,-71,-69,-72,-70,-71,-69,-67,-63,-59,-59,-61,-61,-58,-56,-53,-53,-53,-53,-48,-46,-47,-50,-50,-51,-51,-52,-53,-54,-54,-53,-52,-55,-54,-52,-50,-52,-55,-58,-59,-64,-68,-74,-72,-74,-77,-78,-80,-77,-77,-76,-74,-76,-77,-76,-75,-75,-76,-79,-80,-79,-76,-74,-74,-75,-79,-80,-77,-77,-77,-80,-86,-89,-93,-95,-102,-115,-121,-113,-90,-61,-28,12,60,110,148,162,143,84,7,-60,-93,-104,-98,-90,-85,-89,-87,-87,-88,-86,-85,-86,-82,-83,-83,-84,-89,-91,-87,-85,-84,-86,-87,-87,-87,-85,-86,-86,-89,-90,-89,-86,-87,-86,-87,-86,-85,-84,-83,-83,-88,-89,-87,-85,-86,-88,-93,-92,-90,-89,-90,-91,-89,-90,-88,-86,-83,-85,-85,-89,-86,-86,-89,-89,-91,-89,-90,-88,-87,-88,-90,-92,-90,-88,-88,-90,-91,-94,-94,-95,-97,-95,-95,-97,-96,-95,-97,-98,-101,-102,-103,-101,-96,-99,-97,-97,-92,-88,-87,-84,-83,-84,-80,-76,-72,-72,-74,-74,-71,-68,-66,-65,-67,-70,-69,-67,-67,-67,-71,-70,-70,-68,-67,-68,-70,-71,-69,-66,-67,-68,-70,-70,-69,-68,-70,-71,-72,-75,-74,-72,-71,-74,-74,-76,-76,-73,-75,-76,-78,-78,-78,-74,-74,-75,-79,-76,-75,-71,-72,-74,-76,-77,-76,-75,-76,-76,-79,-78,-77,-75,-76,-76,-77,-79,-78,-79,-74,-76,-75,-76,-74,-72,-75,-77,-77,-78,-78,-75,-75,-75,-77,-79,-80,-76,-75,-75,-78,-77,-73,-67,-67,-63,-65,-64,-61,-61,-59,-58,-58,-58,-57,-55,-57,-59,-63,-61,-60,-57,-57,-58,-61,-62,-61,-61,-56,-57,-58,-63,-67,-69,-69,-75,-75,-76,-77,-78,-77,-78,-78,-80,-84,-81,-81,-81,-83,-84,-84,-84,-80,-83,-84,-85,-83,-81,-81,-82,-85,-90,-96,-102,-105,-110,-122,-129,-126,-113,-97,-79,-62,-46,-19,14,60,109,145,163,162,126,54,-28,-81,-103,-107,-97,-87,-86,-86,-87,-84,-85,-83,-84,-88,-89,-86,-87,-85,-86,-88,-89,-86,-86,-88,-88,-89,-91,-87,-87,-85,-85,-87,-90,-86,-84,-84,-85,-89,-88,-87,-85,-86,-87,-87,-86,-82,-84,-83,-84,-88,-86,-84,-84,-83,-86,-88,-87,-85,-85,-85,-82,-85,-86,-85,-81,-83,-83,-84,-86,-84,-84,-85,-86,-87,-89,-89,-88,-88,-90,-92,-93,-91,-90,-89,-93,-93,-94,-96,-92,-90,-92,-94,-95,-91,-88,-89,-87,-90,-89,-81,-79,-77,-76,-75,-75,-72,-69,-68,-65,-66,-66,-65,-62,-62,-61,-64,-64,-63,-60,-62,-64,-66,-66,-64,-64,-63,-64,-65,-66,-66,-65,-65,-66,-70,-68,-67,-67,-66,-66,-67,-69,-67,-64,-64,-67,-67,-71,-68,-67,-69,-70,-72,-72,-73,-71,-68,-71,-75,-73,-73,-71,-72,-70,-72,-75,-73,-72,-73,-72,-73,-71,-71,-69,-68,-70,-72,-73,-71,-69,-73,-72,-74,-73,-75,-72,-74,-73,-75,-76,-74,-73,-73,-72,-74,-74,-74,-74,-72,-72,-74,-73,-70,-69,-68,-67,-68,-63,-60,-57,-57,-58,-60,-60,-57,-55,-52,-52,-53,-54,-53,-51,-52,-53,-56,-59,-55,-56,-54,-58,-57,-55,-50,-45,-51,-57,-61,-64,-68,-68,-73,-75,-80,-80,-78,-78,-76,-77,-79,-80,-81,-79,-78,-77,-81,-82,-80,-80,-79,-79,-81,-80,-79,-78,-81,-84,-87,-91,-97,-100,-101,-104,-107,-111,-117,-116,-106,-83,-57,-24,16,64,115,151,161,144,94,24,-42,-85,-97,-95,-87,-82,-81,-87,-85,-86,-84,-83,-85,-87,-89,-89,-89,-88,-85,-86,-88,-87,-87,-88,-88,-88,-90,-92,-88,-85,-85,-85,-86,-88,-87,-85,-84,-88,-87,-88,-89,-87,-87,-88,-90,-91,-88,-87,-86,-87,-87,-88,-88,-88,-89,-87,-87,-89,-88,-86,-85,-86,-88,-89,-87,-86,-84,-86,-87,-91,-88,-88,-88,-88,-89,-89,-87,-87,-85,-85,-88,-88,-90,-87,-88,-91,-91,-93,-90,-90,-89,-91,-91,-91,-91,-87,-87,-87,-86,-85,-82,-77,-75,-76,-76,-76,-71,-71,-71,-71,-73,-68,-66,-66,-67,-70,-69,-68,-68,-66,-66,-67,-69,-70,-69,-68,-68,-67,-71,-71,-69,-68,-70,-71,-71,-71,-72,-71,-72,-73,-74,-75,-73,-73,-73,-74,-77,-78,-78,-74,-74,-75,-77,-79,-79,-73,-74,-78,-78,-79,-77,-78,-78,-76,-78,-81,-78,-79,-80,-80,-83,-82,-81,-78,-77,-79,-82,-81,-76,-75,-77,-75,-76,-77,-74,-74,-74,-74,-76,-76,-77,-75,-76,-76,-77,-78,-73,-73,-71,-75,-72,-71,-67,-63,-61,-60,-62,-63,-58,-54,-54,-54,-58,-57,-55,-53,-54,-57,-60,-62,-59,-57,-57,-59,-62,-63,-57,-52,-53,-60,-69,-70,-70,-69,-74,-79,-78,-80,-78,-79,-80,-80,-83,-86,-85,-81,-84,-86,-85,-84,-82,-81,-80,-81,-85,-85,-83,-83,-84,-86,-95,-101,-107,-107,-117,-128,-130,-117,-96,-78,-68,-53,-35,-8,30,75,112,141,154,145,98,28,-46,-96,-113,-108,-96,-90,-88,-90,-90,-90,-89,-86,-86,-90,-92,-93,-92,-91,-90,-90,-91,-92,-90,-89,-90,-91,-93,-94,-91,-89,-91,-91,-91,-91,-87,-87,-85,-89,-88,-90,-90,-91,-90,-91,-93,-92,-92,-89,-89,-92,-94,-93,-91,-87,-88,-90,-91,-93,-93,-93,-90,-89,-89,-89,-89,-86,-86,-87,-92,-90,-88,-85,-88,-91,-92,-95,-94,-91,-91,-94,-97,-97,-94,-94,-94,-96,-98,-98,-95,-92,-93,-95,-97,-97,-95,-96,-94,-95,-96,-96,-89,-88,-83,-83,-82,-82,-78,-76,-76,-77,-78,-76,-73,-72,-71,-73,-73,-73,-70,-70,-69,-71,-75,-77,-75,-71,-71,-70,-71,-74,-71,-71,-71,-75,-76,-76,-74,-72,-72,-74,-79,-79,-76,-73,-71,-75,-76,-75,-74,-74,-74,-79,-81,-81,-79,-80,-80,-82,-81,-82,-82,-80,-80,-82,-84,-83,-82,-79,-78,-79,-81,-81,-78,-78,-79,-81,-81,-83,-83,-84,-81,-81,-81,-86,-82,-82,-81,-82,-84,-84,-83,-80,-81,-81,-84,-81,-83,-80,-78,-79,-79,-79,-78,-76,-73,-69,-70,-69,-67,-68,-68,-69,-69,-67,-63,-58,-55,-55,-57,-60,-59,-60,-62,-61,-61,-62,-62,-64,-59,-59,-59,-62,-66,-67,-68,-73,-75,-80,-81,-80,-83,-83,-85,-85,-86,-81,-80,-80,-84,-85,-86,-83,-83,-86,-87,-86,-85,-84,-85,-85,-86,-85,-85,-85,-86,-89,-95,-105,-108,-107,-114,-121,-124,-111,-84,-57,-26,19,71,120,155,166,137,72,-6,-69,-99,-107,-106,-98,-95,-96,-93,-94,-93,-91,-93,-96,-96,-90,-91,-92,-94,-95,-92,-90,-89,-93,-94,-93,-89,-89,-89,-90,-91,-93,-90,-90,-89,-91,-93,-93,-93,-89,-89,-90,-93,-94,-93,-91,-91,-92,-91,-92,-92,-89,-89,-89,-90,-92,-88,-87,-86,-88,-90,-90,-88,-87,-86,-88,-91,-92,-87,-88,-87,-88,-89,-91,-92,-88,-89,-91,-92,-92,-90,-91,-90,-92,-93,-95,-93,-94,-93,-95,-100,-103,-99,-98,-99,-101,-101,-102,-99,-98,-97,-97,-99,-98,-96,-92,-90,-90,-89,-87,-84,-83,-80,-80,-78,-76,-74,-72,-69,-70,-69,-69,-68,-65,-64,-67,-66,-66,-65,-62,-61,-62,-66,-64,-63,-61,-63,-62,-67,-67,-65,-65,-65,-67,-71,-69,-65,-65,-66,-66,-68,-70,-66,-65,-67,-67,-66,-69,-68,-66,-65,-68,-68,-69,-66,-64,-66,-64,-66,-67,-71,-67,-67,-68,-70,-71,-70,-69,-67,-70,-70,-71,-72,-70,-68,-71,-73,-74,-72,-68,-67,-69,-69,-71,-70,-67,-67,-66,-68,-68,-66,-64,-65,-67,-70,-69,-69,-68,-70,-67,-68,-71,-68,-66,-66,-69,-69,-69,-66,-61,-59,-57,-55,-54,-53,-49,-49,-50,-52,-52,-51,-47,-46,-47,-46,-46,-45,-43,-43,-47,-50,-51,-51,-47,-48,-48,-51,-53,-48,-41,-36,-42,-48,-53,-55,-57,-60,-65,-68,-68,-70,-68,-69,-69,-70,-70,-68,-66,-66,-66,-69,-70,-67,-67,-63,-67,-68,-69,-68,-66,-65,-68,-67,-69,-68,-66,-67,-71,-77,-85,-92,-93,-98,-105,-114,-114,-97,-76,-45,-13,22,72,128,168,192,194,158,88,5,-57,-85,-92,-87,-79,-73,-71,-74,-74,-74,-75,-76,-75,-73,-75,-78,-77,-76,-76,-72,-74,-76,-78,-74,-72,-72,-75,-77,-78,-77,-75,-73,-76,-78,-76,-75,-73,-73,-75,-76,-77,-74,-73,-71,-72,-75,-78,-75,-72,-71,-75,-76,-74,-72,-72,-72,-73,-75,-74,-73,-72,-73,-73,-75,-74,-75,-73,-73,-73,-74,-78,-75,-73,-74,-74,-75,-74,-73,-73,-72,-72,-76,-75,-71,-70,-70,-73,-75,-75,-74,-73,-74,-77,-78,-80,-78,-76,-75,-76,-76,-78,-75,-72,-73,-74,-70,-71,-67,-64,-62,-63,-61,-60,-58,-57,-53,-53,-57,-54,-51,-48,-46,-49,-49,-51,-49,-46,-48,-49,-48,-52,-48,-48,-49,-50,-49,-51,-49,-49,-47,-50,-51,-53,-51,-49,-49,-50,-52,-52,-50,-50,-49,-54,-53,-55,-55,-53,-54,-56,-55,-56,-57,-53,-54,-55,-57,-57,-55,-55,-54,-55,-58,-59,-56,-54,-55,-57,-60,-61,-58,-58,-58,-59,-58,-61,-61,-58,-58,-60,-64,-61,-59,-56,-57,-60,-58,-58,-59,-56,-54,-55,-58,-60,-58,-56,-55,-57,-60,-60,-58,-57,-55,-57,-58,-59,-56,-56,-54,-54,-50,-49,-45,-43,-41,-41,-43,-42,-39,-36,-35,-36,-37,-38,-36,-33,-32,-36,-36,-40,-39,-37,-38,-38,-37,-40,-39,-39,-42,-40,-38,-36,-31,-36,-42,-47,-49,-51,-52,-54,-54,-58,-61,-62,-60,-55,-58,-58,-59,-60,-63,-61,-60,-62,-60,-62,-60,-61,-58,-60,-61,-63,-60,-61,-65,-72,-83,-90,-91,-98,-106,-101,-86,-61,-36,-12,16,57,97,138,173,191,199,176,117,27,-42,-80,-85,-81,-72,-67,-67,-68,-67,-68,-70,-71,-70,-70,-70,-71,-74,-74,-71,-70,-71,-68,-70,-73,-71,-69,-69,-69,-70,-70,-68,-66,-65,-66,-69,-70,-67,-65,-66,-65,-68,-68,-67,-66,-66,-66,-69,-68,-67,-69,-67,-67,-70,-69,-67,-67,-67,-68,-69,-69,-69,-67,-68,-67,-71,-71,-69,-67,-67,-68,-70,-70,-69,-66,-67,-70,-70,-72,-70,-66,-68,-68,-69,-70,-67,-69,-67,-69,-71,-71,-67,-68,-68,-71,-72,-72,-70,-68,-66,-68,-68,-67,-61,-60,-59,-60,-58,-58,-54,-51,-53,-53,-52,-51,-49,-48,-48,-50,-50,-50,-47,-47,-46,-50,-50,-50,-49,-46,-47,-49,-51,-51,-50,-49,-49,-50,-51,-52,-52,-50,-50,-50,-53,-54,-55,-53,-52,-52,-54,-56,-54,-52,-51,-54,-54,-56,-54,-53,-54,-52,-55,-55,-53,-54,-54,-54,-55,-55,-54,-52,-54,-56,-57,-58,-58,-57,-54,-57,-61,-61,-58,-58,-56,-57,-57,-58,-59,-55,-55,-57,-58,-58,-56,-53,-52,-54,-54,-56,-54,-53,-53,-54,-57,-56,-55,-54,-55,-53,-55,-55,-54,-52,-53,-53,-52,-51,-49,-43,-40,-42,-44,-42,-39,-35,-35,-32,-35,-33,-32,-31,-31,-34,-37,-38,-35,-34,-34,-35,-39,-41,-37,-31,-27,-32,-39,-44,-43,-43,-49,-54,-58,-62,-59,-57,-57,-57,-59,-61,-59,-59,-59,-60,-61,-61,-59,-58,-59,-60,-63,-64,-62,-61,-60,-60,-61,-63,-67,-74,-81,-86,-91,-102,-107,-103,-88,-64,-41,-10,41,98,143,166,163,124,54,-20,-71,-91,-91,-80,-71,-70,-69,-71,-73,-74,-71,-68,-69,-70,-71,-73,-72,-73,-72,-73,-73,-74,-74,-71,-71,-71,-72,-73,-68,-68,-69,-70,-73,-73,-70,-68,-70,-70,-74,-72,-71,-70,-69,-71,-74,-74,-72,-71,-71,-69,-72,-72,-71,-69,-68,-68,-72,-71,-71,-70,-70,-70,-72,-70,-68,-67,-68,-71,-73,-72,-73,-71,-71,-70,-72,-75,-73,-71,-74,-75,-75,-76,-75,-76,-73,-74,-78,-81,-80,-79,-76,-78,-78,-80,-78,-76,-77,-81,-77,-77,-71,-69,-67,-66,-67,-64,-60,-57,-56,-57,-57,-59,-57,-54,-54,-54,-55,-57,-55,-53,-51,-51,-55,-56,-54,-53,-55,-56,-54,-54,-51,-50,-49,-53,-55,-58,-57,-54,-53,-50,-54,-56,-56,-56,-56,-57,-61,-59,-58,-59,-56,-58,-59,-61,-59,-58,-57,-55,-58,-61,-60,-59,-58,-59,-60,-62,-59,-60,-57,-59,-62,-63,-62,-62,-62,-64,-61,-59,-56,-56,-56,-59,-61,-61,-60,-59,-58,-60,-57,-59,-59,-59,-59,-59,-61,-62,-60,-58,-58,-58,-60,-60,-54,-49,-48,-50,-50,-50,-45,-42,-39,-38,-38,-38,-38,-39,-37,-37,-42,-40,-40,-37,-40,-43,-46,-48,-42,-35,-35,-43,-49,-53,-53,-54,-58,-60,-60,-65,-63,-61,-58,-57,-57,-57,-55,-54,-56,-59,-62,-66,-64,-61,-60,-63,-63,-65,-63,-64,-66,-66,-65,-65,-64,-67,-73,-80,-86,-95,-101,-103,-90,-70,-42,-12,34,89,143,177,185,152,83,7,-50,-82,-92,-88,-77,-70,-70,-68,-71,-72,-70,-69,-70,-70,-74,-73,-70,-68,-68,-69,-71,-74,-71,-69,-68,-69,-71,-72,-69,-70,-69,-68,-72,-73,-71,-71,-70,-69,-72,-73,-71,-70,-69,-70,-71,-70,-72,-69,-69,-69,-71,-73,-69,-68,-70,-66,-72,-72,-70,-68,-67,-68,-70,-69,-68,-68,-68,-69,-69,-74,-71,-69,-69,-73,-76,-76,-76,-77,-75,-78,-78,-80,-80,-79,-79,-82,-81,-83,-81,-77,-76,-76,-77,-76,-71,-68,-65,-66,-65,-61,-59,-56,-57,-56,-54,-54,-52,-50,-49,-50,-52,-51,-50,-49,-47,-46,-48,-50,-48,-46,-46,-47,-47,-48,-48,-47,-46,-47,-52,-50,-49,-47,-47,-47,-50,-52,-51,-48,-48,-48,-51,-50,-49,-49,-47,-49,-52,-52,-50,-50,-49,-49,-51,-51,-52,-51,-51,-52,-52,-52,-52,-49,-48,-51,-52,-55,-51,-51,-51,-50,-54,-53,-52,-51,-50,-51,-51,-56,-54,-54,-51,-51,-53,-54,-52,-51,-49,-49,-50,-53,-55,-47,-49,-52,-52,-51,-50,-48,-46,-49,-49,-50,-43,-38,-36,-38,-38,-37,-34,-35,-32,-31,-30,-31,-26,-27,-28,-30,-30,-33,-32,-32,-30,-32,-35,-37,-32,-28,-23,-28,-36,-40,-41,-40,-47,-50,-50,-53,-53,-53,-50,-51,-52,-52,-51,-50,-50,-51,-52,-53,-52,-52,-52,-52,-55,-57,-54,-53,-53,-55,-55,-56,-56,-53,-60,-68,-77,-83,-86,-94,-90,-76,-47,-16,24,76,134,180,206,196,151,74,-9,-66,-82,-76,-64,-57,-58,-59,-62,-62,-62,-60,-60,-60,-62,-64,-62,-62,-60,-62,-63,-63,-63,-62,-61,-63,-62,-63,-64,-61,-61,-60,-61,-65,-62,-58,-60,-61,-62,-64,-63,-60,-59,-58,-61,-63,-62,-62,-59,-61,-62,-64,-61,-61,-61,-61,-61,-63,-61,-62,-60,-61,-61,-61,-61,-61,-61,-63,-64,-64,-61,-59,-60,-61,-63,-64,-62,-62,-60,-62,-64,-62,-63,-61,-60,-62,-64,-64,-64,-63,-61,-62,-64,-63,-62,-59,-57,-55,-56,-54,-50,-47,-45,-44,-46,-45,-44,-42,-38,-39,-40,-42,-40,-39,-37,-38,-38,-38,-36,-35,-36,-37,-40,-39,-38,-39,-36,-38,-40,-42,-40,-40,-41,-42,-44,-42,-42,-41,-39,-41,-43,-43,-43,-42,-41,-43,-43,-44,-44,-42,-42,-45,-46,-46,-46,-46,-43,-47,-49,-49,-49,-46,-45,-47,-46,-49,-47,-45,-45,-45,-47,-50,-45,-45,-45,-46,-46,-49,-48,-46,-43,-45,-47,-46,-47,-44,-42,-43,-44,-46,-43,-42,-41,-43,-42,-44,-47,-41,-43,-41,-41,-42,-39,-34,-31,-33,-33,-34,-31,-25,-26,-26,-24,-26,-24,-20,-20,-22,-24,-28,-27,-26,-23,-24,-29,-29,-28,-19,-16,-20,-29,-34,-35,-36,-41,-43,-44,-47,-47,-46,-45,-46,-49,-52,-48,-48,-47,-49,-47,-52,-49,-50,-50,-47,-49,-50,-49,-48,-44,-46,-46,-47,-50,-51,-55,-65,-70,-77,-76,-82,-89,-91,-82,-59,-26,7,51,106,152,182,194,171,112,33,-32,-69,-75,-66,-56,-54,-55,-57,-55,-54,-52,-54,-56,-59,-56,-56,-55,-58,-59,-59,-58,-56,-55,-57,-57,-58,-56,-56,-54,-56,-59,-60,-58,-54,-55,-54,-57,-59,-55,-54,-52,-53,-55,-56,-56,-55,-51,-54,-54,-56,-56,-54,-54,-54,-57,-57,-57,-53,-55,-56,-58,-59,-56,-57,-55,-54,-54,-56,-55,-55,-53,-54,-56,-59,-57,-55,-54,-57,-57,-59,-58,-57,-56,-57,-58,-62,-61,-60,-59,-61,-62,-63,-62,-61,-57,-58,-59,-59,-58,-55,-52,-51,-49,-52,-49,-43,-44,-43,-44,-43,-41,-36,-40,-38,-40,-39,-37,-35,-36,-38,-35,-39,-38,-38,-37,-37,-39,-39,-38,-37,-34,-35,-39,-42,-40,-38,-39,-39,-40,-42,-40,-40,-40,-41,-43,-44,-41,-39,-38,-42,-46,-45,-46,-43,-44,-44,-43,-45,-41,-42,-41,-42,-43,-45,-43,-44,-43,-44,-46,-47,-46,-44,-43,-45,-47,-48,-44,-46,-46,-44,-48,-50,-48,-46,-46,-48,-46,-47,-48,-44,-42,-42,-45,-45,-47,-46,-47,-48,-49,-50,-48,-44,-43,-44,-44,-46,-43,-40,-39,-37,-36,-37,-37,-32,-31,-31,-29,-31,-27,-25,-24,-25,-29,-29,-29,-27,-27,-30,-31,-30,-29,-31,-34,-35,-33,-32,-28,-24,-21,-22,-28,-35,-36,-36,-36,-40,-45,-49,-51,-49,-50,-53,-56,-55,-52,-49,-49,-51,-55,-57,-53,-53,-51,-51,-55,-57,-57,-56,-53,-58,-59,-60,-57,-58,-61,-68,-74,-78,-81,-93,-95,-92,-75,-54,-27,12,60,113,152,178,177,150,88,18,-41,-72,-84,-81,-72,-66,-66,-68,-66,-63,-58,-61,-61,-64,-60,-58,-61,-62,-61,-63,-65,-63,-62,-62,-63,-63,-63,-63,-61,-63,-63,-64,-63,-63,-64,-65,-66,-67,-66,-65,-62,-62,-62,-64,-61,-62,-63,-64,-65,-68,-66,-64,-64,-63,-63,-64,-61,-64,-64,-66,-66,-67,-64,-60,-60,-63,-63,-62,-61,-59,-60,-60,-62,-64,-63,-64,-65,-64,-66,-67,-64,-63,-63,-66,-67,-70,-69,-68,-68,-68,-68,-72,-73,-70,-70,-72,-75,-73,-74,-73,-70,-70,-68,-68,-67,-66,-61,-60,-58,-55,-55,-52,-53,-51,-51,-49,-45,-42,-42,-44,-45,-46,-43,-43,-41,-44,-42,-45,-44,-42,-42,-43,-44,-47,-44,-41,-41,-43,-45,-46,-45,-43,-44,-44,-43,-46,-48,-45,-45,-46,-45,-48,-46,-47,-49,-51,-51,-52,-52,-50,-48,-49,-50,-51,-49,-45,-49,-53,-54,-57,-55,-52,-51,-52,-50,-53,-53,-52,-49,-50,-51,-56,-53,-51,-50,-52,-53,-53,-51,-50,-51,-53,-55,-56,-51,-50,-49,-50,-51,-55,-52,-49,-47,-50,-53,-53,-51,-52,-51,-51,-48,-49,-46,-44,-40,-41,-43,-40,-40,-35,-32,-32,-33,-34,-32,-28,-29,-30,-33,-34,-35,-33,-34,-35,-36,-41,-38,-34,-32,-29,-29,-37,-41,-42,-44,-48,-53,-56,-55,-53,-56,-56,-56,-56,-55,-54,-55,-56,-59,-58,-57,-55,-55,-56,-55,-59,-57,-56,-57,-55,-60,-61,-65,-71,-74,-80,-88,-98,-100,-89,-68,-42,-18,19,70,124,168,197,200,172,110,39,-19,-58,-77,-86,-89,-86,-83,-79,-70,-68,-67,-65,-64,-63,-65,-65,-64,-63,-62,-63,-65,-67,-63,-61,-61,-63,-64,-64,-64,-62,-64,-60,-62,-64,-64,-61,-61,-63,-62,-63,-62,-59,-60,-59,-61,-64,-61,-60,-60,-60,-62,-64,-60,-61,-58,-59,-61,-66,-63,-62,-59,-62,-63,-64,-60,-62,-60,-59,-63,-64,-62,-61,-61,-60,-60,-61,-60,-61,-60,-60,-60,-64,-65,-63,-61,-62,-67,-70,-69,-63,-67,-66,-69,-71,-69,-69,-70,-68,-71,-73,-70,-70,-68,-69,-68,-70,-67,-63,-62,-58,-59,-58,-56,-51,-48,-47,-49,-48,-45,-44,-42,-42,-41,-42,-42,-39,-37,-38,-39,-44,-40,-40,-37,-38,-41,-41,-41,-41,-39,-39,-40,-41,-40,-40,-38,-41,-41,-42,-40,-40,-39,-41,-44,-44,-44,-42,-42,-42,-43,-46,-44,-43,-45,-44,-45,-47,-44,-44,-42,-46,-49,-49,-47,-45,-47,-46,-49,-51,-49,-47,-47,-47,-47,-49,-48,-47,-45,-48,-48,-49,-47,-47,-47,-47,-48,-49,-48,-47,-45,-48,-50,-51,-50,-47,-44,-45,-48,-46,-45,-45,-44,-47,-47,-49,-47,-45,-45,-44,-46,-47,-44,-42,-38,-38,-36,-37,-32,-30,-30,-29,-30,-31,-27,-24,-23,-23,-23,-27,-26,-26,-25,-29,-28,-29,-28,-28,-28,-26,-23,-22,-23,-26,-29,-31,-34,-38,-38,-38,-37,-41,-44,-47,-47,-45,-48,-47,-47,-47,-47,-46,-46,-48,-50,-49,-49,-47,-49,-48,-48,-51,-51,-50,-48,-50,-51,-56,-59,-64,-72,-75,-81,-91,-95,-83,-60,-32,1,41,98,154,197,209,191,129,44,-29,-69,-77,-69,-60,-56,-52,-55,-54,-54,-56,-55,-55,-54,-58,-58,-59,-59,-59,-56,-56,-58,-58,-59,-57,-59,-56,-58,-58,-56,-54,-53,-55,-55,-57,-57,-54,-55,-55,-57,-57,-54,-56,-56,-57,-56,-59,-57,-55,-55,-56,-57,-58,-58,-56,-55,-55,-55,-58,-55,-53,-55,-53,-55,-58,-56,-53,-54,-54,-56,-56,-55,-54,-53,-54,-57,-57,-55,-56,-55,-56,-55,-58,-57,-54,-56,-56,-56,-58,-58,-56,-56,-57,-58,-58,-58,-58,-58,-59,-59,-58,-59,-55,-52,-52,-55,-53,-51,-48,-47,-45,-43,-44,-42,-39,-39,-38,-35,-38,-37,-34,-31,-34,-35,-39,-34,-32,-34,-33,-37,-39,-36,-34,-33,-33,-36,-38,-38,-36,-34,-35,-37,-38,-38,-37,-36,-39,-38,-40,-38,-38,-38,-39,-40,-41,-40,-40,-40,-39,-40,-43,-42,-40,-38,-41,-42,-42,-43,-41,-40,-41,-44,-46,-45,-42,-43,-41,-44,-45,-46,-46,-43,-44,-44,-46,-45,-44,-45,-44,-46,-50,-47,-45,-42,-45,-46,-47,-45,-45,-44,-45,-44,-47,-46,-43,-44,-45,-44,-46,-46,-43,-44,-44,-43,-44,-41,-37,-34,-31,-32,-32,-32,-30,-28,-26,-27,-25,-24,-23,-21,-23,-24,-27,-29,-28,-28,-28,-29,-30,-32,-30,-26,-20,-22,-28,-32,-34,-35,-35,-40,-43,-45,-45,-43,-44,-46,-50,-50,-50,-50,-49,-51,-51,-51,-50,-49,-51,-53,-55,-52,-52,-51,-50,-54,-55,-53,-53,-52,-54,-58,-60,-62,-69,-73,-78,-86,-95,-99,-90,-70,-45,-19,12,58,111,156,183,185,162,105,38,-27,-65,-82,-78,-67,-60,-59,-59,-60,-61,-60,-58,-59,-59,-59,-62,-60,-57,-57,-60,-60,-61,-60,-59,-58,-57,-59,-59,-60,-59,-58,-61,-62,-64,-63,-58,-59,-60,-60,-62,-60,-58,-56,-58,-60,-62,-60,-58,-58,-56,-58,-64,-61,-60,-59,-61,-62,-62,-61,-62,-58,-59,-58,-60,-59,-58,-57,-59,-60,-60,-58,-57,-56,-57,-59,-59,-59,-57,-56,-57,-57,-60,-56,-59,-57,-58,-58,-61,-61,-59,-59,-60,-60,-62,-61,-58,-59,-60,-60,-62,-64,-60,-62,-59,-61,-60,-59,-54,-52,-52,-51,-53,-50,-46,-45,-44,-47,-49,-47,-44,-43,-42,-42,-46,-43,-42,-45,-45,-48,-49,-45,-46,-43,-45,-44,-47,-46,-48,-45,-45,-47,-49,-47,-46,-47,-47,-50,-54,-50,-48,-49,-50,-51,-53,-51,-51,-51,-49,-50,-54,-53,-55,-51,-53,-53,-56,-57,-56,-55,-56,-57,-57,-54,-54,-53,-54,-55,-57,-57,-57,-58,-58,-58,-61,-59,-57,-55,-55,-56,-58,-59,-57,-54,-56,-59,-58,-59,-58,-57,-57,-56,-60,-57,-55,-54,-55,-57,-56,-57,-54,-52,-53,-55,-55,-51,-46,-45,-44,-45,-47,-44,-42,-39,-38,-38,-41,-39,-36,-37,-37,-40,-42,-40,-37,-40,-42,-42,-41,-38,-37,-43,-49,-53,-57,-61,-59,-58,-58,-60,-62,-60,-60,-59,-60,-62,-64,-62,-60,-61,-59,-64,-66,-69,-69,-63,-65,-68,-67,-67,-67,-64,-64,-68,-79,-85,-87,-92,-103,-109,-105,-81,-54,-25,14,66,115,153,170,152,92,17,-44,-78,-93,-89,-81,-80,-79,-80,-76,-74,-75,-76,-75,-72,-72,-69,-74,-74,-73,-73,-71,-69,-71,-70,-74,-73,-72,-73,-74,-77,-77,-77,-76,-75,-73,-75,-76,-75,-76,-77,-76,-75,-75,-72,-71,-71,-74,-77,-77,-77,-74,-71,-72,-72,-75,-73,-72,-71,-71,-72,-74,-73,-74,-72,-73,-75,-73,-75,-74,-74,-75,-77,-78,-76,-74,-74,-77,-79,-80,-79,-80,-77,-78,-81,-84,-85,-86,-84,-85,-86,-89,-85,-80,-81,-81,-84,-87,-83,-77,-76,-75,-74,-72,-67,-64,-62,-61,-62,-63,-61,-59,-59,-58,-58,-59,-58,-57,-56,-57,-62,-61,-59,-59,-59,-58,-56,-59,-56,-56,-54,-58,-61,-57,-57,-56,-58,-57,-60,-59,-59,-59,-59,-60,-64,-63,-62,-60,-57,-58,-63,-64,-61,-59,-58,-61,-65,-66,-65,-61,-62,-62,-64,-65,-67,-64,-63,-62,-65,-66,-65,-64,-63,-63,-64,-66,-65,-63,-63,-62,-66,-65,-64,-63,-63,-65,-64,-65,-65,-60,-61,-63,-65,-64,-62,-61,-59,-60,-63,-63,-63,-61,-61,-60,-60,-61,-55,-52,-50,-50,-52,-54,-51,-46,-44,-42,-45,-48,-45,-43,-43,-46,-48,-46,-47,-45,-45,-47,-52,-52,-49,-44,-44,-48,-56,-59,-61,-62,-64,-64,-69,-69,-68,-64,-65,-66,-66,-68,-69,-68,-67,-69,-68,-70,-69,-67,-66,-69,-69,-71,-71,-69,-69,-70,-75,-82,-90,-94,-96,-104,-111,-106,-82,-53,-18,24,74,125,166,182,162,101,14,-56,-90,-94,-87,-78,-75,-76,-75,-75,-74,-73,-75,-77,-78,-75,-75,-74,-77,-78,-75,-76,-73,-75,-77,-79,-77,-73,-70,-73,-71,-74,-73,-72,-72,-72,-74,-76,-75,-75,-75,-72,-75,-77,-75,-73,-74,-72,-74,-75,-76,-76,-74,-74,-74,-76,-76,-75,-74,-74,-75,-77,-75,-74,-72,-73,-74,-78,-76,-74,-74,-77,-77,-81,-78,-77,-77,-77,-80,-82,-82,-80,-82,-80,-83,-84,-83,-81,-80,-81,-82,-85,-81,-80,-77,-76,-77,-74,-70,-67,-64,-63,-62,-65,-61,-57,-58,-54,-54,-56,-53,-51,-49,-51,-53,-54,-53,-50,-50,-50,-52,-54,-53,-52,-52,-54,-56,-56,-55,-53,-52,-53,-55,-54,-53,-52,-53,-52,-55,-56,-55,-52,-53,-54,-56,-58,-57,-56,-55,-56,-57,-61,-60,-59,-56,-58,-60,-61,-59,-58,-59,-59,-58,-63,-60,-58,-58,-59,-60,-62,-60,-59,-59,-58,-60,-59,-57,-59,-57,-57,-60,-60,-59,-57,-57,-57,-57,-60,-58,-57,-55,-59,-58,-61,-58,-57,-58,-56,-61,-62,-55,-50,-47,-45,-45,-47,-45,-43,-39,-39,-41,-39,-38,-37,-38,-37,-42,-44,-42,-43,-42,-43,-44,-46,-42,-36,-31,-29,-34,-40,-46,-46,-49,-47,-52,-55,-56,-56,-54,-57,-58,-63,-61,-61,-62,-60,-62,-64,-63,-65,-62,-64,-66,-68,-65,-65,-64,-65,-66,-68,-68,-74,-82,-87,-93,-98,-106,-100,-84,-53,-21,21,75,136,180,198,180,114,22,-52,-87,-88,-78,-70,-68,-70,-68,-69,-68,-71,-72,-70,-70,-69,-73,-74,-73,-74,-72,-73,-73,-75,-73,-68,-71,-71,-72,-75,-72,-71,-68,-70,-72,-73,-73,-71,-68,-69,-70,-73,-72,-69,-69,-69,-70,-73,-70,-71,-68,-71,-71,-73,-72,-71,-69,-71,-73,-74,-74,-74,-69,-69,-74,-74,-72,-68,-67,-69,-68,-71,-69,-71,-70,-71,-72,-73,-71,-70,-68,-68,-70,-72,-70,-70,-71,-73,-72,-74,-73,-71,-71,-67,-70,-70,-68,-67,-63,-62,-62,-60,-58,-56,-53,-53,-53,-54,-51,-50,-49,-50,-50,-51,-50,-50,-48,-50,-52,-51,-53,-50,-46,-47,-49,-52,-53,-50,-49,-50,-52,-53,-53,-54,-52,-54,-55,-58,-55,-53,-52,-51,-54,-57,-58,-54,-54,-56,-55,-58,-58,-56,-56,-56,-57,-62,-60,-59,-56,-57,-61,-63,-61,-61,-59,-57,-61,-64,-64,-60,-60,-60,-61,-63,-62,-59,-55,-58,-59,-62,-60,-59,-58,-58,-59,-62,-57,-58,-58,-57,-59,-61,-62,-60,-56,-57,-59,-60,-58,-60,-55,-54,-53,-52,-52,-47,-41,-41,-43,-47,-43,-39,-37,-35,-36,-36,-38,-35,-35,-38,-39,-42,-39,-38,-38,-39,-42,-43,-39,-34,-35,-41,-46,-49,-49,-49,-52,-53,-57,-59,-59,-59,-61,-61,-63,-63,-64,-63,-61,-61,-63,-64,-63,-63,-59,-63,-62,-65,-65,-63,-61,-61,-63,-66,-66,-68,-73,-85,-90,-94,-102,-107,-98,-80,-54,-23,19,74,129,166,175,152,93,15,-50,-83,-88,-82,-73,-68,-68,-70,-69,-73,-71,-72,-68,-66,-69,-72,-72,-69,-69,-72,-71,-74,-71,-70,-67,-67,-69,-71,-68,-68,-65,-67,-71,-72,-72,-69,-69,-67,-69,-72,-69,-67,-67,-66,-70,-73,-70,-69,-65,-67,-69,-73,-71,-71,-70,-69,-69,-69,-67,-66,-64,-66,-65,-68,-66,-66,-64,-65,-69,-69,-69,-69,-65,-68,-67,-69,-67,-67,-68,-65,-68,-70,-71,-69,-67,-67,-69,-71,-71,-70,-67,-69,-70,-74,-72,-70,-67,-66,-68,-69,-66,-64,-62,-60,-61,-59,-57,-55,-55,-52,-53,-56,-54,-52,-50,-51,-51,-52,-52,-50,-48,-51,-51,-54,-52,-51,-51,-49,-50,-53,-53,-49,-51,-51,-51,-53,-53,-52,-52,-51,-54,-56,-57,-54,-51,-52,-55,-59,-59,-56,-57,-54,-58,-58,-57,-58,-57,-58,-61,-62,-58,-58,-59,-60,-63,-64,-63,-61,-59,-58,-60,-61,-62,-58,-58,-59,-62,-64,-64,-63,-62,-59,-59,-62,-62,-60,-59,-57,-58,-62,-61,-60,-56,-60,-62,-64,-63,-61,-60,-62,-60,-61,-58,-57,-52,-51,-50,-51,-49,-48,-46,-44,-45,-44,-42,-40,-38,-39,-41,-46,-42,-40,-41,-43,-43,-45,-45,-45,-42,-42,-40,-40,-44,-44,-46,-48,-51,-54,-56,-56,-57,-60,-62,-64,-62,-63,-64,-62,-64,-66,-66,-65,-63,-64,-64,-67,-69,-67,-64,-67,-67,-70,-68,-66,-65,-68,-66,-71,-69,-69,-73,-78,-85,-89,-97,-106,-109,-102,-86,-62,-36,-3,42,92,137,165,177,157,103,34,-31,-70,-87,-91,-85,-78,-76,-73,-74,-74,-70,-71,-74,-75,-77,-73,-73,-73,-75,-73,-74,-72,-72,-74,-75,-76,-73,-74,-69,-70,-71,-74,-74,-73,-72,-72,-71,-72,-73,-71,-73,-74,-75,-74,-74,-71,-69,-72,-73,-75,-74,-74,-74,-75,-75,-76,-75,-74,-72,-73,-75,-76,-73,-71,-71,-72,-73,-75,-73,-73,-70,-69,-70,-74,-74,-72,-69,-68,-70,-74,-72,-71,-71,-72,-74,-78,-77,-76,-75,-77,-82,-83,-81,-80,-80,-79,-80,-84,-84,-83,-84,-84,-86,-87,-83,-81,-78,-75,-77,-75,-73,-69,-67,-65,-65,-64,-61,-58,-56,-57,-57,-56,-57,-54,-52,-53,-54,-56,-56,-53,-53,-53,-51,-55,-54,-53,-51,-53,-54,-56,-57,-54,-52,-53,-55,-57,-55,-54,-54,-53,-55,-59,-58,-56,-54,-55,-56,-60,-58,-56,-57,-57,-57,-59,-60,-59,-58,-58,-60,-61,-61,-59,-61,-59,-61,-62,-64,-60,-59,-60,-61,-62,-62,-60,-60,-59,-60,-62,-61,-60,-60,-59,-61,-63,-62,-61,-60,-57,-59,-63,-60,-61,-59,-59,-61,-62,-60,-59,-56,-58,-58,-61,-59,-60,-57,-55,-55,-54,-53,-47,-45,-46,-47,-49,-48,-46,-41,-43,-40,-40,-37,-38,-37,-39,-40,-43,-44,-43,-39,-39,-43,-44,-45,-39,-34,-35,-40,-47,-50,-50,-52,-54,-59,-61,-60,-58,-57,-58,-62,-66,-64,-64,-63,-62,-66,-65,-63,-64,-61,-63,-65,-69,-67,-66,-62,-64,-67,-67,-68,-66,-64,-64,-67,-74,-81,-88,-87,-94,-104,-109,-100,-77,-47,-18,17,63,117,158,181,185,154,88,9,-53,-82,-94,-89,-83,-75,-71,-71,-71,-72,-73,-73,-72,-70,-69,-72,-76,-76,-75,-72,-74,-74,-77,-74,-73,-74,-71,-74,-76,-74,-72,-70,-70,-73,-74,-74,-71,-72,-71,-74,-75,-73,-72,-72,-70,-73,-75,-73,-71,-72,-71,-73,-74,-73,-71,-69,-68,-71,-72,-75,-73,-69,-72,-73,-73,-73,-72,-71,-71,-69,-73,-70,-71,-69,-68,-70,-72,-72,-70,-69,-70,-71,-73,-74,-73,-72,-72,-76,-78,-81,-77,-75,-75,-77,-78,-78,-77,-74,-76,-77,-77,-76,-74,-73,-73,-73,-70,-69,-66,-62,-60,-60,-61,-58,-55,-52,-51,-52,-56,-52,-49,-47,-46,-47,-49,-48,-45,-46,-45,-46,-48,-48,-46,-45,-46,-48,-49,-47,-46,-45,-46,-47,-51,-52,-49,-48,-47,-48,-50,-48,-47,-46,-47,-51,-52,-52,-50,-48,-49,-50,-53,-53,-50,-48,-52,-53,-56,-54,-54,-51,-53,-53,-58,-56,-54,-53,-53,-54,-55,-54,-53,-55,-56,-57,-57,-59,-56,-55,-52,-55,-58,-58,-56,-54,-53,-55,-58,-57,-55,-54,-56,-55,-55,-55,-54,-51,-51,-51,-55,-57,-53,-50,-52,-52,-53,-47,-44,-40,-41,-40,-43,-40,-40,-37,-34,-33,-31,-33,-31,-30,-32,-32,-35,-36,-36,-35,-35,-36,-39,-38,-38,-36,-33,-29,-32,-35,-38,-43,-46,-49,-53,-55,-56,-54,-56,-59,-58,-59,-59,-58,-58,-59,-62,-61,-59,-58,-60,-61,-62,-61,-58,-57,-60,-62,-64,-65,-68,-73,-81,-88,-92,-99,-104,-97,-81,-57,-30,2,41,98,149,185,198,190,147,73,-7,-64,-87,-91,-88,-83,-80,-75,-69,-68,-65,-65,-70,-69,-69,-67,-66,-65,-66,-68,-70,-70,-67,-67,-67,-70,-72,-69,-69,-70,-67,-67,-70,-67,-66,-64,-65,-67,-67,-67,-67,-66,-67,-66,-69,-68,-66,-64,-66,-65,-69,-68,-66,-65,-65,-65,-68,-66,-64,-64,-65,-67,-68,-66,-64,-62,-63,-64,-66,-64,-64,-64,-62,-65,-64,-66,-63,-62,-62,-66,-69,-69,-66,-66,-65,-66,-67,-65,-66,-63,-65,-65,-70,-69,-67,-63,-66,-65,-69,-69,-67,-66,-66,-67,-68,-69,-63,-59,-59,-58,-58,-55,-53,-53,-49,-50,-52,-50,-48,-45,-46,-46,-48,-47,-45,-44,-44,-45,-49,-48,-46,-46,-44,-46,-48,-47,-45,-46,-44,-47,-49,-48,-47,-47,-48,-50,-50,-50,-49,-49,-49,-51,-53,-53,-49,-48,-50,-51,-54,-53,-53,-51,-54,-54,-57,-55,-53,-52,-53,-55,-56,-58,-56,-54,-56,-56,-58,-59,-54,-53,-55,-54,-56,-56,-55,-55,-58,-58,-61,-58,-56,-54,-54,-56,-55,-56,-55,-52,-53,-57,-56,-56,-52,-52,-53,-53,-53,-56,-53,-52,-54,-54,-53,-47,-43,-39,-40,-41,-42,-38,-35,-34,-33,-34,-34,-31,-31,-31,-35,-35,-36,-37,-34,-35,-33,-35,-39,-41,-38,-30,-28,-32,-39,-44,-45,-48,-52,-55,-57,-57,-56,-55,-54,-55,-57,-58,-57,-58,-58,-62,-62,-61,-59,-57,-56,-59,-62,-64,-61,-58,-59,-63,-64,-67,-73,-74,-82,-87,-92,-101,-103,-92,-71,-43,-9,40,98,146,175,176,140,67,-9,-60,-80,-84,-79,-72,-67,-65,-65,-63,-66,-67,-66,-66,-65,-67,-70,-68,-68,-66,-65,-69,-70,-69,-67,-65,-67,-69,-72,-69,-69,-66,-67,-68,-71,-68,-69,-66,-66,-68,-70,-71,-70,-67,-69,-70,-72,-71,-68,-69,-69,-69,-72,-70,-69,-66,-66,-69,-69,-69,-69,-65,-66,-68,-72,-70,-69,-66,-66,-67,-69,-70,-68,-67,-69,-72,-74,-72,-72,-66,-69,-73,-74,-72,-74,-73,-73,-76,-76,-76,-73,-73,-73,-73,-75,-77,-77,-73,-73,-74,-74,-72,-68,-64,-62,-61,-62,-59,-60,-59,-55,-55,-57,-58,-54,-52,-52,-55,-56,-57,-53,-55,-54,-54,-57,-58,-55,-52,-53,-53,-57,-56,-55,-55,-55,-57,-61,-59,-56,-57,-55,-57,-61,-60,-60,-58,-58,-58,-62,-63,-59,-58,-58,-61,-64,-63,-61,-61,-63,-64,-66,-64,-64,-62,-64,-64,-68,-68,-67,-65,-63,-66,-69,-70,-68,-65,-64,-67,-68,-66,-65,-63,-64,-64,-68,-68,-66,-68,-67,-70,-72,-69,-68,-66,-65,-66,-68,-69,-67,-65,-64,-68,-65,-61,-58,-54,-55,-56,-57,-56,-51,-47,-49,-47,-49,-48,-48,-48,-49,-50,-52,-50,-50,-50,-54,-54,-53,-48,-47,-48,-53,-60,-65,-66,-69,-67,-67,-73,-76,-72,-71,-69,-71,-72,-75,-72,-72,-70,-71,-73,-75,-74,-72,-70,-72,-77,-80,-76,-73,-71,-70,-76,-83,-90,-95,-95,-101,-112,-116,-102,-76,-47,-12,33,84,135,167,171,136,63,-14,-67,-93,-99,-95,-87,-82,-81,-81,-80,-83,-81,-83,-81,-80,-79,-79,-83,-85,-85,-85,-82,-81,-84,-84,-84,-83,-80,-83,-84,-83,-84,-83,-81,-83,-85,-87,-85,-86,-83,-84,-86,-86,-85,-85,-83,-84,-86,-87,-85,-83,-82,-82,-83,-85,-84,-84,-84,-83,-84,-84,-83,-82,-82,-83,-82,-84,-84,-81,-80,-79,-82,-83,-86,-83,-85,-86,-89,-91,-90,-87,-87,-89,-91,-94,-94,-93,-93,-93,-93,-96,-95,-94,-92,-92,-93,-96,-97,-92,-90,-89,-88,-89,-87,-87,-82,-80,-77,-78,-75,-72,-71,-67,-65,-67,-66,-64,-63,-61,-63,-66,-64,-63,-62,-59,-63,-65,-61,-63,-61,-62,-59,-64,-64,-62,-59,-59,-61,-65,-64,-62,-61,-64,-63,-67,-65,-67,-66,-64,-64,-67,-67,-70,-69,-66,-67,-69,-67,-67,-67,-67,-66,-71,-71,-68,-67,-68,-70,-71,-71,-70,-68,-68,-70,-72,-70,-69,-68,-70,-72,-73,-71,-69,-66,-66,-68,-72,-71,-68,-67,-68,-69,-70,-72,-69,-67,-65,-66,-70,-70,-68,-68,-67,-68,-71,-69,-67,-67,-63,-63,-62,-59,-56,-55,-54,-55,-54,-54,-49,-45,-45,-46,-48,-49,-47,-48,-48,-50,-52,-53,-51,-51,-53,-54,-53,-50,-45,-40,-44,-51,-57,-61,-60,-62,-66,-69,-70,-73,-71,-70,-70,-72,-74,-75,-71,-70,-70,-73,-74,-73,-72,-70,-71,-73,-76,-73,-73,-73,-75,-85,-95,-99,-106,-112,-115,-103,-80,-47,-13,27,79,132,169,192,213,224,215,171,90,1,-69,-98,-98,-87,-78,-77,-80,-80,-77,-78,-82,-80,-80,-79,-78,-80,-82,-81,-81,-80,-81,-82,-85,-84,-83,-80,-79,-80,-83,-81,-80,-76,-80,-78,-82,-81,-81,-79,-79,-79,-84,-83,-81,-77,-77,-79,-80,-83,-81,-78,-78,-81,-84,-83,-81,-78,-81,-80,-82,-81,-80,-78,-78,-80,-80,-82,-81,-80,-80,-81,-83,-82,-80,-79,-79,-82,-84,-83,-83,-82,-82,-83,-85,-84,-84,-82,-82,-82,-85,-84,-84,-82,-81,-82,-82,-81,-80,-77,-76,-74,-72,-70,-68,-64,-62,-64,-63,-64,-60,-60,-59,-60,-63,-61,-57,-58,-58,-60,-63,-62,-59,-58,-58,-59,-63,-60,-59,-60,-61,-61,-63,-63,-63,-63,-61,-64,-64,-66,-64,-61,-63,-64,-67,-68,-67,-63,-64,-64,-70,-70,-68,-68,-67,-67,-69,-69,-67,-65,-67,-70,-70,-71,-68,-66,-67,-69,-71,-70,-69,-67,-68,-68,-70,-70,-69,-68,-68,-71,-72,-71,-69,-67,-70,-70,-71,-72,-70,-68,-69,-69,-71,-69,-66,-65,-66,-67,-68,-69,-66,-64,-63,-65,-62,-61,-54,-56,-51,-54,-55,-54,-50,-48,-46,-45,-49,-47,-48,-45,-46,-49,-52,-52,-52,-49,-51,-53,-55,-50,-44,-40,-46,-50,-57,-56,-57,-56,-58,-64,-68,-66,-69,-67,-68,-72,-74,-71,-70,-70,-70,-74,-74,-76,-72,-71,-72,-74,-76,-75,-76,-74,-73,-76,-77,-80,-85,-91,-96,-101,-108,-117,-118,-100,-72,-46,-16,29,89,138,171,179,147,81,-3,-70,-100,-103,-94,-85,-81,-78,-79,-79,-81,-80,-80,-80,-81,-81,-83,-80,-82,-79,-80,-81,-84,-83,-81,-79,-80,-82,-84,-84,-79,-79,-78,-82,-83,-81,-80,-79,-78,-80,-83,-81,-79,-80,-79,-80,-83,-82,-81,-78,-80,-80,-81,-82,-79,-79,-78,-78,-80,-81,-77,-79,-77,-80,-81,-80,-78,-78,-77,-79,-81,-79,-79,-76,-77,-76,-79,-81,-78,-77,-77,-80,-81,-80,-79,-76,-76,-79,-80,-80,-81,-81,-82,-83,-84,-82,-78,-77,-73,-74,-75,-72,-73,-72,-66,-70,-68,-64,-59,-57,-57,-61,-62,-60,-61,-56,-56,-56,-59,-58,-57,-57,-58,-58,-62,-62,-59,-59,-60,-60,-62,-60,-59,-59,-59,-58,-64,-61,-61,-62,-61,-64,-65,-64,-63,-61,-61,-61,-63,-66,-63,-62,-62,-70,-69,-70,-68,-67,-67,-69,-71,-70,-67,-67,-66,-68,-68,-68,-64,-66,-67,-67,-70,-69,-70,-69,-68,-71,-73,-71,-70,-68,-68,-69,-69,-70,-68,-68,-67,-68,-70,-71,-69,-70,-67,-70,-70,-70,-68,-68,-67,-68,-69,-68,-64,-61,-58,-60,-60,-58,-58,-55,-56,-54,-54,-50,-46,-45,-43,-46,-47,-49,-47,-49,-48,-50,-51,-51,-51,-51,-53,-56,-56,-55,-49,-46,-45,-46,-53,-55,-56,-59,-63,-67,-73,-73,-74,-72,-71,-72,-74,-72,-70,-69,-71,-73,-74,-74,-71,-70,-70,-73,-75,-73,-72,-71,-71,-74,-80,-85,-90,-96,-99,-106,-117,-117,-105,-81,-57,-30,5,59,112,151,167,155,115,48,-19,-69,-92,-99,-97,-88,-82,-79,-80,-79,-80,-78,-76,-77,-77,-80,-80,-80,-79,-81,-79,-84,-82,-83,-82,-81,-82,-82,-83,-80,-79,-77,-77,-79,-81,-83,-81,-79,-78,-81,-83,-83,-81,-79,-80,-83,-84,-85,-84,-80,-80,-81,-83,-85,-83,-77,-77,-79,-81,-80,-81,-80,-78,-80,-82,-82,-80,-78,-75,-79,-79,-80,-80,-80,-81,-80,-80,-80,-80,-79,-80,-82,-85,-87,-84,-82,-83,-86,-87,-86,-85,-86,-85,-89,-89,-88,-89,-84,-87,-88,-90,-88,-83,-82,-82,-79,-81,-75,-72,-69,-67,-66,-68,-67,-62,-62,-61,-63,-67,-67,-65,-63,-63,-62,-64,-63,-61,-59,-59,-62,-66,-61,-64,-62,-64,-64,-66,-63,-64,-62,-65,-64,-67,-67,-64,-63,-63,-64,-65,-69,-67,-67,-64,-64,-65,-65,-64,-66,-66,-69,-69,-68,-67,-65,-66,-67,-70,-68,-70,-70,-70,-74,-75,-75,-73,-69,-68,-69,-71,-71,-70,-66,-66,-69,-73,-74,-71,-69,-68,-70,-71,-72,-71,-69,-69,-71,-72,-71,-69,-69,-69,-68,-72,-72,-69,-65,-66,-67,-70,-68,-65,-62,-60,-60,-60,-60,-58,-55,-52,-53,-52,-50,-49,-48,-46,-47,-50,-47,-48,-48,-49,-49,-51,-51,-50,-52,-53,-54,-52,-48,-46,-48,-51,-55,-60,-61,-62,-63,-67,-69,-71,-73,-70,-72,-70,-73,-75,-74,-71,-73,-73,-73,-75,-74,-72,-70,-72,-74,-77,-73,-72,-70,-70,-75,-80,-85,-90,-96,-98,-105,-112,-111,-97,-74,-50,-23,11,60,112,152,182,192,173,128,67,8,-37,-66,-86,-102,-103,-99,-93,-88,-82,-81,-80,-78,-78,-77,-77,-78,-78,-74,-76,-77,-78,-78,-76,-77,-76,-78,-79,-79,-78,-77,-76,-76,-80,-78,-75,-77,-77,-78,-79,-78,-76,-76,-75,-76,-79,-76,-75,-74,-75,-76,-79,-77,-77,-75,-76,-76,-79,-78,-78,-76,-76,-77,-78,-75,-74,-74,-73,-76,-79,-77,-77,-77,-75,-76,-78,-75,-75,-75,-75,-75,-82,-80,-78,-77,-78,-79,-83,-83,-83,-82,-82,-85,-85,-86,-85,-85,-85,-85,-87,-86,-86,-80,-79,-83,-82,-79,-76,-73,-70,-70,-71,-69,-63,-60,-60,-61,-62,-61,-60,-56,-56,-59,-58,-58,-58,-54,-53,-55,-57,-56,-57,-55,-54,-55,-56,-56,-53,-52,-53,-55,-57,-58,-56,-54,-53,-56,-56,-57,-56,-54,-56,-58,-59,-58,-57,-55,-57,-57,-62,-62,-60,-59,-61,-64,-66,-66,-62,-61,-59,-63,-63,-64,-62,-60,-61,-60,-65,-64,-63,-64,-61,-63,-65,-65,-62,-61,-61,-65,-67,-64,-63,-60,-61,-64,-65,-65,-62,-63,-62,-66,-67,-67,-63,-60,-60,-61,-60,-62,-61,-59,-60,-60,-64,-62,-61,-58,-61,-61,-62,-61,-59,-56,-54,-53,-51,-50,-48,-47,-46,-46,-46,-43,-42,-37,-37,-39,-40,-42,-42,-41,-41,-45,-46,-43,-44,-42,-42,-42,-40,-37,-37,-41,-48,-50,-55,-57,-56,-58,-58,-61,-64,-64,-62,-63,-63,-66,-67,-68,-68,-66,-67,-68,-70,-69,-69,-66,-66,-68,-69,-70,-68,-67,-69,-76,-85,-91,-95,-95,-101,-110,-122,-123,-121,-112,-103,-91,-73,-50,-22,11,58,111,155,182,191,169,109,27,-46,-86,-95,-86,-76,-75,-74,-75,-74,-72,-73,-75,-75,-77,-74,-72,-75,-75,-75,-77,-74,-74,-75,-74,-77,-76,-75,-72,-71,-77,-77,-76,-74,-75,-76,-75,-75,-75,-76,-73,-72,-75,-76,-74,-75,-72,-72,-71,-74,-75,-71,-71,-69,-72,-74,-75,-74,-76,-72,-74,-76,-75,-73,-71,-70,-72,-74,-74,-73,-69,-71,-72,-74,-71,-72,-70,-72,-74,-74,-73,-72,-72,-74,-73,-77,-74,-73,-73,-71,-74,-73,-75,-75,-74,-74,-74,-76,-77,-74,-72,-73,-74,-75,-72,-72,-68,-67,-66,-69,-66,-62,-61,-58,-59,-61,-59,-56,-53,-52,-53,-55,-54,-51,-48,-49,-53,-57,-54,-52,-51,-51,-53,-56,-57,-56,-51,-51,-54,-55,-53,-54,-55,-55,-56,-56,-57,-56,-54,-53,-56,-59,-59,-56,-57,-58,-61,-64,-61,-60,-58,-60,-61,-61,-60,-60,-58,-62,-63,-63,-63,-62,-61,-62,-64,-64,-65,-64,-62,-62,-63,-63,-66,-65,-63,-61,-63,-65,-66,-64,-61,-62,-63,-66,-65,-64,-63,-62,-63,-65,-66,-63,-61,-64,-66,-64,-64,-68,-64,-63,-64,-65,-63,-63,-60,-56,-55,-55,-56,-49,-47,-48,-50,-48,-47,-43,-41,-39,-40,-42,-42,-43,-41,-41,-45,-48,-49,-49,-46,-45,-44,-47,-50,-50,-47,-42,-38,-39,-44,-48,-49,-53,-58,-64,-66,-63,-63,-65,-68,-69,-68,-68,-64,-66,-67,-67,-69,-68,-66,-66,-69,-70,-72,-68,-68,-67,-69,-71,-73,-76,-81,-88,-94,-98,-107,-113,-110,-94,-70,-45,-14,35,91,136,166,172,147,92,24,-41,-85,-98,-94,-86,-76,-76,-77,-78,-81,-75,-75,-75,-76,-77,-79,-79,-77,-77,-78,-80,-79,-78,-77,-76,-79,-81,-81,-79,-77,-78,-78,-78,-78,-78,-77,-78,-79,-79,-80,-77,-75,-76,-77,-79,-79,-80,-77,-79,-79,-80,-80,-79,-77,-78,-78,-78,-80,-78,-77,-77,-79,-80,-80,-78,-78,-77,-78,-79,-77,-74,-75,-75,-78,-79,-77,-77,-75,-75,-77,-81,-82,-80,-75,-78,-78,-80,-82,-84,-81,-82,-81,-85,-83,-80,-81,-83,-83,-85,-85,-85,-81,-82,-85,-84,-84,-79,-78,-76,-75,-75,-75,-71,-68,-68,-68,-70,-69,-67,-62,-64,-64,-65,-64,-63,-63,-62,-64,-66,-66,-64,-63,-64,-68,-70,-69,-66,-65,-65,-67,-69,-69,-68,-65,-66,-68,-68,-71,-69,-71,-71,-73,-74,-72,-70,-69,-74,-75,-76,-75,-72,-70,-73,-71,-73,-75,-73,-71,-73,-74,-77,-77,-74,-75,-76,-78,-79,-78,-74,-72,-71,-77,-76,-76,-74,-72,-73,-74,-76,-80,-79,-79,-79,-77,-75,-73,-72,-71,-71,-73,-75,-76,-73,-70,-72,-68,-68,-67,-64,-59,-59,-59,-60,-58,-57,-54,-54,-51,-52,-55,-53,-53,-54,-57,-56,-59,-58,-58,-61,-60,-58,-54,-52,-44,-47,-50,-58,-63,-65,-67,-74,-77,-79,-81,-81,-80,-80,-78,-81,-83,-78,-79,-81,-82,-84,-83,-81,-79,-83,-83,-86,-86,-84,-82,-85,-91,-97,-101,-100,-106,-118,-121,-107,-85,-53,-17,25,78,123,154,164,132,57,-25,-82,-108,-110,-102,-93,-91,-89,-89,-87,-84,-84,-85,-88,-90,-90,-87,-88,-88,-90,-92,-90,-87,-88,-87,-91,-94,-90,-89,-88,-88,-89,-90,-90,-88,-88,-88,-88,-91,-89,-88,-87,-89,-91,-93,-91,-88,-90,-90,-91,-89,-88,-87,-89,-88,-89,-90,-89,-87,-88,-89,-92,-90,-88,-86,-86,-88,-90,-90,-87,-88,-88,-89,-92,-93,-92,-87,-88,-89,-92,-92,-92,-90,-92,-94,-94,-96,-93,-91,-95,-96,-95,-99,-99,-95,-97,-98,-99,-101,-97,-97,-95,-94,-92,-92,-89,-83,-82,-81,-79,-80,-76,-73,-70,-69,-71,-67,-67,-64,-65,-64,-68,-66,-63,-62,-65,-65,-65,-67,-66,-63,-66,-67,-69,-69,-66,-65,-67,-67,-69,-68,-68,-65,-67,-68,-71,-73,-72,-70,-70,-70,-72,-73,-71,-70,-70,-71,-73,-72,-69,-67,-70,-72,-72,-75,-73,-71,-72,-73,-73,-73,-75,-70,-71,-74,-76,-75,-72,-70,-72,-73,-73,-75,-73,-71,-71,-73,-75,-74,-74,-72,-72,-71,-74,-74,-73,-71,-70,-71,-72,-74,-72,-68,-70,-68,-67,-63,-61,-57,-56,-57,-59,-57,-53,-51,-49,-50,-50,-51,-51,-50,-51,-52,-55,-58,-52,-49,-49,-52,-56,-59,-54,-47,-44,-47,-54,-61,-61,-62,-65,-70,-75,-76,-73,-73,-73,-74,-77,-77,-74,-73,-73,-76,-78,-77,-77,-77,-76,-78,-78,-79,-81,-78,-80,-90,-97,-103,-106,-114,-118,-112,-93,-61,-25,21,77,135,173,191,177,124,36,-44,-94,-111,-108,-100,-92,-86,-82,-84,-84,-81,-81,-84,-85,-85,-85,-82,-82,-85,-85,-88,-86,-83,-83,-83,-87,-85,-85,-82,-83,-83,-85,-85,-83,-81,-82,-84,-83,-86,-83,-81,-80,-82,-83,-84,-81,-79,-79,-81,-82,-83,-80,-80,-78,-82,-82,-83,-80,-78,-80,-80,-83,-83,-81,-80,-81,-81,-82,-84,-81,-79,-79,-77,-80,-84,-80,-80,-80,-82,-82,-85,-83,-82,-81,-85,-86,-88,-87,-84,-87,-88,-91,-89,-88,-85,-84,-86,-85,-82,-80,-76,-76,-75,-72,-72,-68,-65,-63,-66,-65,-67,-61,-59,-59,-61,-62,-63,-60,-58,-58,-60,-61,-62,-61,-59,-58,-62,-62,-62,-62,-61,-62,-59,-61,-64,-62,-61,-60,-64,-65,-65,-63,-62,-58,-62,-63,-63,-63,-61,-61,-63,-69,-67,-65,-62,-62,-63,-67,-66,-64,-64,-64,-67,-66,-68,-68,-64,-65,-66,-66,-67,-67,-65,-64,-67,-67,-69,-66,-64,-64,-66,-68,-69,-66,-66,-64,-65,-66,-68,-65,-63,-66,-66,-66,-67,-65,-63,-63,-64,-66,-67,-64,-63,-61,-62,-61,-61,-56,-51,-49,-49,-50,-51,-47,-42,-43,-42,-43,-43,-41,-38,-37,-38,-40,-42,-43,-40,-40,-45,-44,-46,-44,-46,-44,-42,-39,-39,-41,-46,-51,-55,-60,-63,-62,-64,-65,-65,-67,-66,-65,-63,-66,-69,-69,-70,-66,-67,-68,-69,-70,-70,-69,-68,-69,-70,-73,-78,-84,-89,-92,-97,-108,-114,-103,-77,-50,-19,18,72,126,165,189,192,157,89,11,-49,-87,-105,-103,-98,-88,-78,-74,-76,-77,-78,-73,-72,-72,-74,-76,-77,-75,-72,-72,-73,-75,-79,-74,-71,-76,-73,-77,-74,-71,-72,-71,-73,-73,-74,-74,-72,-71,-71,-72,-76,-73,-71,-71,-71,-73,-73,-73,-70,-69,-72,-71,-74,-72,-71,-71,-72,-72,-73,-71,-70,-70,-72,-72,-74,-71,-68,-70,-71,-71,-72,-69,-70,-71,-72,-72,-72,-73,-70,-71,-72,-74,-74,-74,-71,-71,-71,-73,-74,-73,-71,-73,-73,-72,-75,-73,-70,-70,-73,-73,-73,-71,-68,-64,-66,-65,-64,-60,-58,-56,-56,-55,-57,-53,-51,-52,-49,-50,-52,-50,-47,-48,-49,-51,-52,-49,-48,-49,-52,-53,-54,-51,-50,-51,-51,-52,-54,-53,-51,-52,-54,-54,-53,-53,-51,-50,-53,-55,-58,-55,-54,-52,-56,-58,-58,-57,-57,-55,-59,-59,-60,-58,-57,-58,-60,-64,-64,-59,-57,-58,-60,-63,-64,-62,-63,-60,-61,-63,-62,-59,-60,-60,-61,-63,-64,-59,-58,-58,-60,-61,-61,-59,-57,-60,-60,-62,-62,-59,-59,-59,-60,-60,-61,-59,-57,-57,-57,-61,-62,-61,-59,-58,-59,-60,-60,-59,-55,-52,-50,-50,-47,-44,-43,-45,-43,-40,-38,-35,-28,-29,-28,-31,-33,-30,-29,-31,-31,-35,-37,-35,-34,-36,-35,-30,-30,-32,-36,-40,-43,-47,-52,-53,-52,-52,-54,-58,-56,-54,-53,-53,-56,-57,-58,-56,-55,-56,-59,-62,-63,-61,-62,-61,-59,-58,-61,-60,-57,-59,-59,-62,-69,-75,-81,-86,-96,-106,-105,-87,-60,-32,3,54,113,157,179,171,124,47,-30,-76,-83,-80,-70,-67,-67,-67,-65,-64,-64,-65,-68,-63,-63,-63,-66,-68,-66,-64,-64,-65,-67,-68,-71,-67,-64,-64,-65,-68,-69,-67,-66,-66,-65,-66,-67,-65,-63,-64,-64,-66,-70,-68,-65,-62,-63,-66,-66,-64,-63,-63,-67,-67,-66,-67,-64,-65,-67,-69,-69,-67,-66,-67,-68,-69,-71,-69,-67,-66,-65,-64,-64,-64,-62,-61,-64,-67,-68,-67,-67,-66,-71,-69,-71,-69,-69,-72,-74,-74,-76,-75,-74,-72,-73,-71,-71,-70,-69,-65,-67,-67,-67,-67,-62,-60,-61,-61,-60,-57,-54,-55,-57,-55,-56,-54,-51,-53,-51,-51,-52,-50,-47,-48,-49,-51,-52,-53,-52,-51,-52,-54,-54,-53,-50,-52,-52,-54,-55,-55,-53,-54,-55,-55,-53,-52,-51,-53,-58,-59,-59,-59,-55,-58,-60,-60,-60,-59,-58,-60,-60,-62,-61,-62,-58,-59,-59,-59,-61,-60,-58,-60,-64,-64,-64,-65,-59,-61,-61,-65,-65,-63,-61,-63,-64,-65,-67,-66,-64,-63,-63,-64,-68,-62,-62,-61,-63,-66,-66,-62,-63,-61,-61,-64,-70,-64,-61,-63,-64,-60,-65,-61,-60,-59,-57,-57,-56,-57,-50,-50,-52,-48,-49,-44,-42,-40,-44,-42,-44,-41,-38,-39,-40,-43,-46,-46,-43,-46,-49,-49,-53,-52,-46,-44,-43,-47,-52,-53,-54,-57,-62,-67,-67,-65,-66,-67,-71,-71,-75,-72,-69,-72,-73,-73,-76,-72,-72,-72,-74,-76,-76,-72,-70,-68,-73,-77,-79,-82,-86,-88,-94,-106,-116,-119,-106,-84,-59,-33,3,59,112,155,183,188,163,119,66,15,-25,-51,-68,-78,-91,-101,-109,-112,-104,-89,-84,-84,-85,-85,-83,-82,-82,-82,-82,-83,-83,-81,-83,-85,-86,-88,-86,-81,-81,-82,-84,-84,-86,-85,-81,-80,-82,-87,-86,-87,-83,-86,-83,-83,-85,-85,-82,-82,-84,-87,-85,-85,-84,-86,-86,-88,-88,-85,-84,-84,-85,-87,-87,-85,-83,-84,-84,-84,-85,-86,-84,-83,-84,-84,-84,-85,-84,-84,-84,-88,-89,-88,-88,-87,-91,-93,-92,-94,-93,-92,-95,-97,-97,-100,-96,-94,-98,-98,-97,-96,-90,-91,-91,-89,-87,-83,-80,-77,-77,-74,-74,-72,-70,-68,-67,-68,-69,-67,-64,-63,-65,-67,-66,-65,-62,-63,-64,-64,-65,-65,-63,-63,-64,-65,-69,-65,-64,-64,-67,-69,-69,-70,-67,-66,-67,-70,-69,-68,-67,-66,-69,-70,-70,-68,-66,-68,-69,-72,-73,-69,-68,-68,-71,-73,-72,-70,-69,-69,-71,-74,-74,-71,-71,-69,-70,-74,-72,-73,-72,-71,-71,-72,-73,-73,-71,-70,-72,-74,-73,-72,-69,-70,-71,-74,-74,-71,-72,-71,-71,-73,-73,-71,-69,-70,-71,-72,-72,-69,-70,-68,-69,-70,-70,-68,-68,-67,-68,-66,-63,-60,-59,-58,-57,-58,-57,-55,-52,-50,-50,-50,-52,-50,-48,-50,-52,-56,-56,-54,-50,-53,-54,-56,-55,-49,-48,-49,-57,-61,-65,-66,-69,-71,-74,-77,-75,-76,-73,-75,-76,-76,-80,-76,-77,-75,-77,-80,-81,-79,-77,-78,-80,-82,-82,-81,-80,-84,-88,-98,-106,-108,-111,-120,-129,-131,-123,-108,-87,-66,-43,-18,22,71,123,161,183,185,158,93,13,-60,-99,-108,-101,-88,-83,-82,-87,-87,-88,-85,-85,-85,-86,-87,-89,-88,-87,-86,-86,-86,-89,-88,-87,-87,-87,-88,-89,-88,-81,-85,-84,-88,-88,-85,-88,-87,-85,-88,-90,-85,-84,-84,-85,-86,-87,-84,-82,-84,-85,-86,-87,-87,-85,-86,-87,-88,-87,-87,-85,-85,-87,-84,-87,-87,-84,-85,-85,-86,-86,-85,-84,-84,-86,-86,-87,-87,-87,-86,-88,-90,-93,-92,-89,-90,-91,-92,-91,-92,-92,-89,-91,-93,-94,-91,-88,-87,-91,-89,-87,-86,-82,-83,-82,-81,-81,-77,-75,-75,-75,-73,-73,-71,-69,-67,-70,-69,-71,-69,-68,-64,-65,-68,-68,-67,-64,-64,-65,-69,-69,-66,-66,-67,-66,-69,-68,-69,-67,-67,-69,-70,-70,-69,-68,-68,-69,-72,-74,-73,-70,-73,-72,-73,-73,-74,-71,-72,-73,-75,-76,-73,-73,-73,-74,-76,-77,-75,-76,-75,-74,-77,-77,-76,-75,-73,-74,-78,-78,-75,-74,-75,-74,-76,-80,-76,-76,-76,-76,-75,-76,-75,-74,-72,-75,-77,-77,-75,-72,-74,-74,-75,-76,-75,-76,-72,-75,-73,-75,-73,-71,-71,-72,-73,-71,-65,-62,-60,-59,-60,-63,-58,-56,-55,-55,-55,-55,-53,-52,-50,-54,-55,-56,-56,-56,-56,-58,-58,-55,-55,-55,-55,-58,-61,-58,-54,-48,-49,-56,-61,-64,-65,-67,-72,-74,-77,-79,-77,-76,-74,-76,-79,-80,-80,-78,-79,-81,-81,-80,-78,-77,-78,-78,-82,-82,-79,-78,-80,-84,-90,-97,-104,-106,-110,-120,-127,-123,-107,-81,-55,-23,17,71,126,161,178,170,120,46,-32,-83,-107,-111,-108,-97,-88,-87,-88,-90,-88,-90,-89,-89,-90,-90,-91,-91,-90,-89,-87,-87,-91,-89,-86,-85,-84,-86,-89,-89,-89,-86,-87,-88,-89,-89,-87,-87,-89,-90,-88,-90,-87,-87,-89,-87,-87,-88,-88,-85,-84,-86,-87,-90,-89,-88,-88,-87,-87,-89,-88,-88,-86,-85,-87,-88,-86,-85,-85,-85,-90,-89,-85,-85,-85,-87,-88,-89,-86,-86,-84,-86,-88,-90,-89,-88,-88,-88,-91,-92,-88,-87,-87,-89,-91,-92,-89,-86,-86,-84,-85,-85,-82,-78,-77,-79,-78,-77,-74,-71,-70,-69,-69,-71,-68,-67,-66,-67,-67,-69,-68,-66,-63,-66,-68,-68,-65,-63,-66,-65,-70,-69,-66,-63,-65,-66,-68,-69,-68,-66,-65,-67,-70,-72,-69,-67,-66,-69,-72,-72,-70,-70,-70,-69,-73,-74,-74,-71,-71,-73,-76,-76,-74,-74,-74,-74,-77,-77,-76,-74,-73,-75,-76,-75,-76,-74,-73,-75,-77,-77,-78,-75,-73,-75,-76,-77,-74,-72,-74,-74,-75,-76,-75,-74,-74,-74,-74,-75,-74,-72,-72,-72,-76,-74,-73,-70,-70,-72,-72,-72,-71,-68,-67,-66,-65,-62,-60,-58,-57,-58,-59,-59,-54,-51,-49,-49,-50,-54,-51,-50,-51,-54,-54,-55,-54,-54,-55,-56,-55,-49,-46,-48,-53,-61,-62,-65,-65,-67,-69,-73,-73,-74,-74,-75,-74,-76,-76,-76,-76,-73,-76,-78,-78,-80,-78,-76,-76,-76,-82,-79,-79,-81,-79,-80,-85,-85,-86,-92,-98,-106,-109,-118,-126,-123,-109,-86,-61,-31,16,69,116,145,152,133,79,6,-57,-99,-112,-105,-94,-88,-84,-88,-89,-89,-87,-86,-85,-87,-87,-87,-84,-85,-83,-84,-86,-88,-88,-88,-89,-86,-88,-86,-83,-83,-84,-87,-87,-89,-88,-87,-85,-86,-89,-88,-85,-85,-82,-83,-84,-89,-85,-82,-83,-84,-85,-85,-84,-83,-82,-85,-85,-85,-84,-82,-80,-84,-84,-88,-85,-85,-81,-81,-83,-83,-79,-82,-83,-85,-84,-85,-81,-81,-80,-82,-83,-83,-84,-80,-83,-85,-87,-87,-87,-86,-85,-87,-89,-90,-88,-87,-87,-90,-90,-90,-87,-85,-82,-83,-82,-81,-75,-74,-73,-73,-73,-72,-70,-67,-69,-66,-68,-70,-69,-68,-69,-71,-71,-71,-71,-69,-69,-69,-73,-73,-68,-66,-67,-71,-72,-72,-70,-71,-69,-70,-71,-74,-73,-71,-70,-72,-74,-77,-75,-72,-71,-71,-73,-77,-76,-74,-73,-72,-74,-76,-76,-73,-74,-75,-78,-79,-79,-78,-78,-78,-80,-80,-78,-76,-74,-76,-78,-79,-77,-76,-77,-79,-79,-80,-76,-77,-74,-76,-77,-77,-78,-76,-75,-75,-78,-78,-77,-74,-75,-76,-77,-74,-72,-69,-68,-70,-70,-69,-67,-66,-64,-64,-63,-64,-63,-59,-58,-58,-57,-57,-53,-54,-57,-59,-60,-62,-59,-57,-60,-61,-62,-60,-56,-55,-58,-68,-72,-73,-77,-78,-79,-80,-85,-85,-83,-81,-80,-81,-79,-82,-82,-81,-81,-85,-84,-85,-83,-81,-81,-83,-85,-85,-86,-85,-89,-98,-105,-107,-115,-123,-131,-134,-130,-123,-113,-100,-86,-71,-58,-34,9,61,115,147,156,128,64,-9,-64,-97,-108,-107,-98,-93,-90,-89,-88,-88,-85,-86,-90,-90,-93,-91,-92,-91,-92,-92,-94,-93,-91,-87,-87,-89,-89,-91,-92,-89,-88,-88,-91,-92,-90,-89,-92,-94,-92,-94,-92,-90,-89,-89,-90,-93,-91,-89,-87,-90,-90,-92,-87,-88,-88,-87,-90,-92,-89,-87,-87,-89,-91,-92,-92,-90,-91,-92,-93,-93,-91,-90,-92,-91,-95,-95,-93,-93,-93,-95,-97,-99,-98,-97,-98,-98,-100,-100,-101,-98,-97,-99,-103,-103,-99,-96,-95,-94,-91,-90,-84,-82,-80,-79,-79,-76,-76,-73,-72,-75,-75,-74,-72,-71,-71,-69,-71,-71,-70,-67,-68,-69,-72,-72,-69,-67,-69,-70,-74,-72,-71,-69,-71,-71,-73,-72,-71,-72,-70,-71,-74,-76,-75,-73,-73,-74,-74,-77,-76,-74,-73,-73,-75,-80,-76,-75,-75,-76,-77,-78,-76,-75,-74,-76,-77,-79,-76,-75,-75,-76,-78,-80,-78,-76,-76,-79,-77,-78,-75,-76,-75,-75,-77,-77,-76,-74,-75,-75,-77,-77,-75,-75,-74,-76,-78,-78,-76,-72,-70,-70,-71,-69,-65,-62,-61,-63,-62,-60,-56,-52,-52,-52,-52,-53,-53,-52,-51,-55,-56,-57,-56,-58,-58,-57,-55,-51,-46,-45,-50,-56,-61,-66,-65,-66,-68,-72,-77,-79,-77,-77,-79,-77,-80,-79,-79,-78,-80,-82,-84,-82,-81,-81,-81,-84,-85,-86,-84,-82,-81,-85,-89,-97,-105,-107,-114,-122,-126,-116,-93,-61,-30,12,62,119,162,179,159,102,20,-57,-100,-110,-101,-94,-88,-89,-85,-86,-86,-86,-88,-87,-86,-87,-84,-83,-85,-88,-88,-87,-84,-86,-88,-90,-87,-88,-86,-90,-91,-89,-88,-86,-86,-86,-87,-87,-87,-82,-84,-86,-88,-89,-86,-86,-84,-85,-86,-87,-86,-85,-84,-83,-87,-89,-86,-84,-85,-84,-86,-87,-85,-83,-83,-85,-87,-86,-84,-83,-82,-84,-84,-88,-83,-86,-85,-85,-88,-86,-87,-85,-85,-88,-90,-90,-88,-87,-86,-87,-89,-89,-86,-85,-86,-86,-86,-87,-85,-84,-84,-85,-84,-81,-79,-76,-76,-72,-73,-72,-66,-63,-64,-63,-66,-64,-61,-61,-61,-61,-61,-61,-59,-59,-57,-57,-60,-61,-60,-59,-60,-61,-61,-61,-61,-60,-59,-62,-64,-63,-61,-62,-62,-61,-64,-66,-64,-62,-62,-62,-64,-65,-63,-63,-62,-63,-66,-67,-66,-63,-64,-66,-66,-67,-67,-67,-65,-67,-69,-69,-68,-66,-66,-66,-68,-70,-67,-66,-66,-65,-67,-69,-65,-65,-64,-67,-67,-69,-66,-64,-66,-68,-68,-70,-68,-65,-67,-66,-68,-66,-65,-64,-62,-66,-65,-67,-64,-61,-57,-54,-58,-55,-52,-49,-49,-50,-53,-51,-49,-48,-45,-46,-45,-45,-41,-40,-41,-41,-45,-47,-47,-46,-45,-47,-49,-50,-43,-38,-38,-46,-52,-58,-59,-59,-61,-64,-67,-70,-67,-64,-63,-64,-68,-68,-67,-64,-65,-67,-68,-69,-67,-67,-66,-67,-70,-73,-73,-75,-80,-92,-98,-102,-110,-112,-102,-81,-55,-25,12,58,110,153,182,199,207,194,143,59,-24,-77,-96,-93,-82,-74,-75,-75,-73,-72,-71,-71,-74,-77,-74,-71,-70,-74,-75,-77,-75,-72,-73,-73,-75,-77,-74,-71,-71,-74,-74,-74,-72,-70,-72,-73,-74,-73,-72,-70,-70,-69,-75,-74,-70,-67,-69,-71,-69,-69,-68,-69,-69,-70,-70,-71,-69,-68,-69,-69,-71,-74,-71,-70,-68,-70,-70,-70,-73,-68,-69,-67,-69,-69,-67,-67,-66,-69,-70,-70,-70,-70,-68,-69,-72,-73,-72,-70,-71,-72,-74,-74,-71,-70,-70,-69,-68,-68,-64,-61,-61,-61,-57,-59,-58,-54,-54,-50,-53,-56,-52,-48,-49,-50,-50,-52,-51,-47,-48,-47,-49,-50,-50,-49,-48,-49,-52,-52,-52,-49,-49,-50,-52,-50,-50,-50,-50,-52,-55,-55,-54,-52,-51,-52,-54,-56,-53,-52,-54,-56,-57,-57,-55,-51,-54,-55,-56,-58,-56,-56,-56,-57,-58,-60,-57,-55,-54,-58,-62,-61,-58,-57,-57,-58,-60,-59,-59,-58,-57,-60,-61,-63,-62,-58,-58,-57,-60,-59,-58,-57,-54,-56,-59,-60,-59,-57,-56,-56,-55,-59,-57,-56,-56,-57,-56,-59,-55,-54,-50,-49,-48,-46,-45,-41,-39,-39,-42,-38,-34,-33,-34,-33,-35,-36,-36,-36,-36,-39,-39,-43,-42,-39,-37,-35,-39,-42,-41,-38,-33,-30,-33,-38,-44,-44,-48,-54,-57,-58,-60,-57,-58,-59,-60,-62,-61,-61,-60,-62,-63,-63,-63,-62,-61,-64,-65,-65,-62,-62,-60,-64,-67,-71,-71,-77,-81,-87,-97,-107,-111,-103,-82,-60,-34,4,53,106,150,179,191,