-43.64
-41.44
-39
-36.92
-35.76
-35.44
-35.28
-36.12
-34.96
-35.48
-37.68
-41.4
-43.88
-43
-36.76
-32.72
-29.16
-29.96
-29.8
-28.48
-25.4
-24.24
-25.92
-29.2
-30.36
-34.04
-33.52
-27.56
-18.12
-9.92
-6.28
3
4.2
3.56
-3.28
-4.04
-7.64
-9.84
-11.04
-14.6
-16
-17.92
-19.4
-17.32
-14.68
-14.48
-14.32
-15.76
-21.44
-25.2
-28.72
-29.08
-31.28
-32.96
-39.2
-41.08
-33.68
-28.56
-23.92
-26.68
-27.52
-27.96
-27.68
-29.56
-30
-32.28
-38.4
-39.16
-37.48
-33.44
-29.12
-28.96
-33.36
-37.08
-35.96
-34.44
-25.08
2.2
40.8
89.36
144.16
205.28
250.96
246.96
201.44
136.64
85.24
43.36
17.36
10
-0.52
-10.2
-11.6
-14.16
-17.36
-22.24
-30.44
-35.56
-31.08
-33.84
-33.28
-35.08
-37
-37.44
-31
-32.68
-33.08
-37.44
-44.64
-45.64
-43.96
-45.12
-39.52
-38.28
-37.64
-37.44
-33.32
-30.88
-32.44
-34.04
-34.36
-34.68
-37.96
-40.08
-42.32
-42.52
-40.96
-34.68
-32.04
-26.92
-24.8
-27.32
-29.76
-28.36
-27.76
-28.12
-31.32
-36.36
-39.52
-37.88
-30.28
-25.08
-24.56
-24.2
-25.96
-26.64
-19.2
-17.92
-20.28
-21.6
-21.76
-21.56
-23
-23.32
-16.72
-16.52
-14
-6.64
-4.48
-2.16
-1.68
-2.4
-2.8
-1.24
-0.52
-2.32
-3.68
-1.96
5.64
11.76
16.2
19.28
23.28
26.56
27.04
28
28.36
27.88
28.68
27.16
24
25.76
30.6
36.64
36.12
35.24
36.4
36.84
39.28
38.24
32.64
24.36
21.28
17.76
16.76
14.56
11.68
9.76
10.32
10.24
10.28
9.76
8.4
5.48
2.16
-2.2
-3.24
-8.92
-11.96
-14.88
-14.44
-9.04
-6.64
-2.6
-0.52
-4.96
-8.32
-9.28
-12.64
-11.04
-13
-12.64
-18.48
-20.96
-17.52
-18.12
-18.16
-19.24
-18.8
-17.28
-13.6
-9.6
-11.2
-14.16
-17.44
-17.68
-17.32
-16.84
-14.2
-14.52
-13.24
-14.4
-12.84
-10.12
-9.36
-12.2
-12.84
-9.88
-9.4
-8.64
-10.08
-10.28
-13.48
-13.84
-13.96
-10.48
-6.76
-8.08
-7.88
-6.76
-4.76
-0.8
0
0.48
-2
-0.4
-1.8
-4.88
-6.08
-10.32
-12.68
-9.4
-5.72
-3.96
-1.96
-5.88
-5.08
-1.68
1.52
0.84
-3.6
-5.76
-9.92
-12.4
-14
-9.88
-7
-7.16
-7
-7.12
-4.64
-1.24
-2.88
-3.6
-3.92
-7.08
-9.52
-10.2
-10.68
-10.52
-10.64
-8.92
-4.84
-2.92
-4.36
-6.04
-7.6
-5.44
-8
-8.2
-7.8
-16.48
-19.8
-14.84
-9.16
-4.48
-3.4
-3.4
-3.84
-9.68
-2.48
-5.36
-6.96
-9.12
-11.76
-14.56
-13.2
-12.24
-10.24
-8.56
-5.4
-1.44
2.2
2.52
0.64
-2.12
-3.68
-3.92
-4.52
-0.04
3.52
5.64
8.8
18.52
26.68
28.72
27.6
21.2
16.4
13.76
12.28
12.2
8.72
5.48
1.2
-1.52
2.6
4.4
8.68
6.96
5.04
4.68
-0.24
-1.88
-8.24
-9.04
-12.56
-13.04
-11.36
-10.12
-8.76
-7.96
-12.8
-10.88
-9.84
-6.32
-3.12
-5.88
-10.48
-14.4
-12.04
-10.52
-12
-13.8
-17.52
-14.84
-13.8
-12
-11.96
-13.56
6.64
41.8
84
132.24
190.52
239.24
253.88
228.88
174.84
124.48
80.4
47.36
31.44
22.92
13
10.04
6.36
0.6
-7.96
-13.28
-18.72
-23.84
-22.8
-25.92
-22.04
-19.2
-16.32
-13.76
-15.6
-21.48
-27.08
-29.84
-29.36
-28.84
-33.16
-30.12
-29.08
-23.44
-22.68
-20.68
-20.76
-24.08
-25.68
-26.64
-23.36
-24.32
-28.84
-32.04
-32.2
-29.28
-24.44
-22.84
-21.08
-22.96
-22.96
-22.28
-21.12
-21
-21.68
-26.64
-32.04
-32.36
-29.72
-25.72
-21.76
-23.2
-24.4
-20.48
-16.48
-13.8
-14.48
-16.24
-19.96
-22.96
-20.44
-19.92
-20.24
-18.08
-17.08
-13.6
-8.96
-7.2
-9.36
-5.48
-8.16
-6.92
-5.76
-2.88
-1.32
-0.68
-3.96
-0.76
4.08
8.48
11.96
12.68
12.48
15
18.96
20.28
22.36
22.52
19.4
17.84
22.4
22.84
24.92
28.52
27.08
29.68
30.44
29.64
32
27.4
26.6
24.72
21.64
17.2
12.84
12.44
11.72
12.28
14.84
17.44
15.4
9.76
8.12
5.4
4.56
2.64
-0.28
-8.36
-9.48
-8.72
-4.56
-2.76
-1.92
-5.24
-6.36
-6.36
-5.28
-5
-6.68
-11.28
-15
-14.16
-14.04
-12.56
-15.08
-15.12
-16.16
-15
-16.2
-14.88
-17
-15.52
-14.12
-14.6
-13.72
-17.04
-14.56
-13.52
-11.72
-10.72
-10.12
-10.88
-10.92
-11.16
-11.8
-12.32
-8.92
-9.6
-7.4
-11.48
-13.92
-13.12
-7.64
-6.6
-6
-7.64
-9.68
-8.96
-7.76
-3.88
-1.72
-0.32
-1.68
-0.8
1.32
4.08
2.28
-2.68
-5.8
-7.88
-6.68
-7.36
-5.48
-3.64
-1.48
-0.24
2.04
5.72
3.64
0.28
-2.56
-2.64
-2.84
-5.88
-6.68
-7.2
-11.32
-6.64
-5.68
0.44
2.88
0.72
-0.48
-0.84
0.16
-1.84
-4.08
-7.04
-10.88
-11.6
-6.92
-4.28
-3.08
-1.92
-1.44
0.28
2.84
2.44
-0.6
-1.52
-4.84
-7.88
-9.88
-7.8
-7.24
-7.44
-7.2
-4.24
-1.96
2.68
0.16
-1.12
-3.04
-5.24
-5.8
-5.8
-1.72
-4.48
-5.04
-2.2
3.88
7.6
9.24
8.96
7.48
5.28
5.16
5.04
8.6
7.84
4.96
11.36
19.72
23.68
27
24.12
22
21.92
22.44
20.28
16.4
12.44
7.28
6.68
4.68
6.08
4.64
3.84
3.4
6.6
8.44
6.4
6.16
2.04
-4.76
-5.6
-6.96
-6.6
-10.44
-15.04
-15.36
-11.28
-7.84
-2.6
-1.72
-2.84
-5.28
-8.52
-6.52
-6.48
-9.72
-13.12
-15
-13.92
-10.44
-9.36
-10.96
-14.68
-17.84
-16.16
-1.72
25.88
67.88
111.96
158.84
216.28
263.32
278.32
254.84
202.08
147.52
97.6
59.28
41.04
33.6
19.24
8.16
4.16
3.88
0.44
-5.56
-14.32
-21.8
-20.48
-21.04
-16.08
-16.48
-17.76
-21
-18.36
-18.4
-20.52
-23.76
-28.04
-31
-32.72
-32.36
-28.04
-25.48
-25.56
-22.84
-20.28
-19.6
-20.04
-20.76
-24.8
-29.96
-30.24
-30.28
-30.04
-30.68
-28.28
-27.72
-25.88
-20.36
-17.84
-17.96
-21.16
-22.84
-27
-25.24
-26.56
-26.52
-29.32
-29.96
-27.48
-23.92
-20.28
-18.8
-19
-20
-18.36
-17.28
-17.48
-19.64
-22.8
-24.64
-24.36
-20.48
-15.92
-14.4
-12.52
-12.96
-10.28
-4.44
-1.84
0.32
-3.76
-3.92
-7.12
-6.24
-2.04
3
3.56
6.08
9.8
14.2
18.96
24
23.64
20.68
22.56
23.12
22.8
21.52
18.8
21.72
23.2
27.6
34.32
32.84
34.88
33.96
32.64
34.48
32.4
30
22.92
17.12
15.44
15.28
17.84
17.44
14.32
14.96
14.04
11.08
11.8
6.76
3.84
-3.36
-9.48
-9.36
-7.68
-7.32
-7.64
-7
-5.28
-2.92
-1.96
-2.84
-5.08
-9.2
-12.36
-12.8
-11.8
-17.52
-18.72
-18.4
-15.72
-9.16
-8.32
-8.12
-7.6
-7.64
-8.96
-11.16
-13.32
-19.76
-27.72
-32.48
-30.16
-23.88
-19.76
-13
-10.12
-6.92
-7.16
-6.08
-5.28
-7
-11.88
-20.32
-24.36
-27
-24.44
-20.76
-17.52
-13.92
-8.2
-3.28
-1.44
-3.56
-4.52
-7.6
-7.72
-7.24
-8.88
-8.48
-11.08
-11.44
-9.48
-6.24
-2.48
1.84
0.84
-1.56
-3.2
-5.76
-3.88
-6.32
-10.92
-11.64
-11.64
-7.4
-5.56
-3.36
-1.36
-1.28
-0.44
-0.88
-0.32
-5.84
-8.96
-12.52
-14.24
-14.04
-11
-9.8
-6.84
-4.72
-1.76
0.2
1.12
-2.24
-6.52
-10.12
-12.36
-14.16
-13.72
-13.52
-11.4
-9.28
-8.36
-6.48
-0.52
1.52
-2.44
-7.8
-8.36
-6.04
-5.44
-8.12
-13.52
-16.32
-17.44
-9.6
-5.68
-3.6
-3.72
-4.8
-5
-2.52
-3.12
-4.72
-10.12
-12.84
-13.44
-9.4
-6.48
-5.52
-1.44
-0.44
4.2
6.88
5.64
3.44
1
0.48
-0.04
3.24
4.56
7.8
9.96
14
17.12
20.12
22.88
20.76
17.88
15.08
11.6
14
10.76
9.36
4.96
-1.64
-3.48
-1.52
0.6
1.88
1.96
-1.32
-3.12
-3.04
-7.48
-10.92
-15.08
-16.32
-14.96
-14.72
-15.68
-19.64
-17.44
-15.28
-14.48
-12
-9.84
-10.8
-15.12
-17.68
-15.92
-15.4
-18.16
-22.8
-22.64
-22.64
-22.56
-21.68
-21.84
-18.28
-10.04
18.92
65.52
109.84
158.64
207.24
257.6
280.8
264.72
215.68
159.76
107.88
61.8
35.2
27.4
22.36
14.92
4.4
-2.72
-6.2
-7.04
-11.08
-14.08
-19.92
-20.8
-18.56
-18.84
-17.52
-18.32
-23.16
-27.56
-27
-27.28
-28.96
-30.72
-33.68
-37.48
-34.36
-29.4
-25.2
-26.32
-26.84
-24.72
-24.6
-23.08
-22.6
-26.84
-29.36
-33
-34.88
-31.88
-28.92
-23.92
-23.68
-24.72
-21.04
-19.08
-21.2
-24.64
-26.16
-28.12
-28.52
-29.36
-29.28
-30.36
-28.4
-26.4
-22
-21.04
-17.68
-17.56
-18.6
-23.92
-23.68
-24.76
-24.16
-28.04
-26.84
-26.84
-24.92
-21
-14.76
-12.56
-11.08
-11.84
-12.08
-9.6
-10.52
-10.56
-11.8
-16.6
-15.28
-10.36
-3.56
-0.64
-2.44
3.92
6.52
11.48
14.12
15.64
13.96
13.96
12.68
14.6
17.72
18.56
20.6
21.56
24.76
32.96
36.32
39.28
37.08
34.84
34.12
32.72
32.08
30.88
28.04
27.84
31.76
31.76
33.92
35.4
32.84
27.88
22.68
22.44
20.72
15.44
8.16
1.24
-2.4
-3.52
2.48
4.56
1.96
1.68
2.08
1.04
2.64
-0.56
-3.12
-7.28
-13.4
-14.52
-15.52
-12.68
-13.68
-12.56
-10.16
-5.56
-1.44
-2.48
-4.8
-8.08
-10.84
-12.04
-13.2
-16.28
-18.16
-18.32
-16.36
-13.24
-5.76
-4.04
-5.96
-8.4
-8.92
-12.12
-15.72
-21.76
-26.12
-30.32
-32.32
-26.04
-22.16
-16.68
-13.8
-12.16
-8.72
-7.44
-6.6
-5.48
-10.04
-11.92
-14.24
-15.36
-12.36
-11.52
-11.48
-10.24
-8.4
-1.68
0.68
-0.2
-3.52
-2.68
-5.52
-4.72
-6.16
-10.24
-13.32
-15.52
-12.68
-7.72
-5.04
-4.4
-6.04
-2.92
-4.32
-3.64
-5.52
-6.6
-10
-15.04
-17.28
-15.68
-12.8
-11.76
-8.96
-6.44
-8.16
-5.08
-1.48
-3.6
-6.44
-11.48
-16.88
-17.16
-17.56
-15.92
-11.96
-9.8
-11
-8.68
-1.32
-4.24
-6.56
-8.72
-8.64
-8.76
-12.24
-13.44
-16.88
-16.28
-14.28
-9.2
-2.4
-5.12
-6.64
-8.52
-7
-6.48
-6.44
-9.48
-14.92
-17.2
-20.48
-17
-12.12
-11.08
-7.04
-4.84
-6.36
-3.48
-6.08
-7.44
-11.48
-11.44
-12.92
-12.48
-10.72
-10.08
-8.08
-5.08
-2.16
2.12
6.52
6.52
5.04
-1.2
-2.2
2.76
9.24
10.84
13.76
17.52
21.52
24.36
27.24
25.76
26.4
23.52
21
18.8
17.92
15.12
9.76
3.44
1.44
1.2
3.28
4.12
2.16
-0.28
-1.76
-2.84
-1.6
-5.72
-7.56
-13.36
-18.88
-19.4
-17.56
-18.84
-16.56
-15.64
-13.76
-10.4
-6.92
-9.08
-11.64
-13.72
-12.64
-15.52
-16.24
-16.76
-19.88
-21
-23.92
-22.2
-21.48
-22.92
-19.24
-7.44
20.92
64.72
107.64
155.84
211.2
260.76
283.68
272.32
224.32
165.08
107.04
59.6
29.2
18.88
13.12
2
-5
-9.96
-12.56
-15
-17.12
-22.24
-25.24
-25.48
-25.6
-23.24
-22.68
-26.92
-28.56
-28.64
-32.64
-31.72
-32.4
-34.76
-36.68
-38.8
-39.88
-34.2
-27.44
-24.84
-23.2
-24.4
-28.08
-28.24
-27.36
-30.32
-32.84
-36.2
-35.2
-34.6
-32.64
-29.76
-28
-25.48
-23.92
-21
-21.88
-24.88
-25.92
-30.84
-33.4
-31.92
-30.04
-28.36
-27.32
-25.48
-24.68
-20.24
-18.92
-16.8
-21.48
-23.44
-23.52
-23.68
-22.36
-25.84
-24.8
-25.08
-23.96
-20.24
-15.64
-13.16
-12.52
-13.48
-11.28
-8.32
-7.32
-10.44
-11.04
-13.44
-16.52
-13.8
-8.8
-4.08
-3.16
1.12
2.76
7.68
9.84
9.96
11
8.84
8.16
9.8
9.52
10.32
14.48
18.2
20.24
24.4
28.8
30.8
29.88
29.16
26.04
27.84
27.16
24.92
23.72
21.6
23.68
28.2
33
35.08
32.64
32.48
30.32
27.2
23.08
16.2
12.16
9.2
4.24
4.28
6.4
6
4.92
4.88
5.48
5.24
4.88
2.88
-0.04
-4.92
-7.88
-9.92
-9.8
-9.8
-8.56
-8.96
-7.08
-3.36
-1.84
-1.04
-5.32
-9.36
-10.24
-12.4
-13.56
-14.52
-16.12
-17.08
-12.84
-7.4
-0.68
-1.84
-2.2
-2.48
-3.8
-3.76
-2.56
-5.6
-8.48
-13.36
-16.16
-11.12
-8.4
-8.68
-8.64
-9.88
-11.28
-11.6
-7.96
-7.68
-7.36
-3.28
-1.72
0.08
1.8
0.6
-0.4
-1.88
-3.28
-3.6
-3.2
-5.72
-8.08
-4.88
-5.56
-0.68
3.84
4.76
4.4
4.16
2.92
1.24
1.76
-2.56
-5.08
-8.64
-11.04
-4.92
-0.8
1.2
0.84
0.92
1.6
5.24
3.8
-0.88
-2.24
-4.48
-6.96
-8.44
-4.96
-4.76
-4.52
-2.56
0.12
3
5.72
4.28
2.04
-0.64
-2.88
-3.32
-1.72
-5.08
-6.4
-6.24
-4.16
0.6
3.08
6.12
4.04
3.76
2.6
2.76
2.36
-1.04
-4.28
-6.6
-6.12
-3.2
-0.92
1.84
1.52
2.6
4.6
4.28
6.08
6.24
0.96
-1.52
-5.88
-6.4
-3.88
-3.8
-0.32
1.52
3.2
4.2
7.88
8.68
6.52
2.8
-0.6
-0.12
1.36
1
0.56
-1.28
3.4
8.12
11.6
13.64
15.48
13.32
14.28
17.48
21.88
23.48
20.96
23.72
28.24
35.36
38.92
39.8
35.4
34.52
33.44
32.2
32.16
28.52
24.12
20.72
17.2
14.92
17.44
15.68
14.12
14.88
12.52
12.8
10.56
10.36
6.52
2.72
-2.76
-4.28
-6.96
-10.2
-10.48
-10.24
-8.76
-4.24
0.4
2.72
-0.4
-3.6
-4.52
-4.64
-3.16
-7.44
-10.04
-11.24
-12.72
-13.6
-9.88
-12.28
-14.68
-12.32
-8.28
14.28
46.24
86.2
124.92
170.64
222.08
258.68
262.96
229.08
174.12
122.92
72.52
34.52
21.36
15.16
7.36
-1.6
-3.04
-3.52
-7.12
-13.52
-19.2
-24.88
-26.92
-23.08
-19.52
-20.52
-18.68
-23.84
-23.68
-23.76
-26.28
-28.68
-33.04
-37.44
-38.2
-32.88
-27.04
-24.96
-23.24
-25.36
-26.52
-26.8
-25.68
-24.88
-25.2
-29.56
-31.92
-36.6
-37.4
-36
-33.12
-30.88
-29.2
-23.32
-21.48
-19.56
-25.52
-27.88
-33.28
-30.64
-33.92
-35.64
-41.32
-39.96
-32
-27.68
-20.2
-18.44
-19.48
-22.52
-26.36
-25.8
-25.4
-26.68
-31.64
-32.4
-32.16
-24.88
-24.92
-20.4
-18.88
-19.08
-18.28
-18.32
-19.32
-20.64
-23.12
-23.36
-22.36
-20.32
-19.04
-16.72
-15.76
-16.2
-11.72
-8.12
-1.36
-2.56
-1.48
-4.64
-5.28
-4.56
-1.76
-2.8
-1.32
0.04
0.92
6.2
15.28
19.6
17.6
16.76
15.12
15.56
17.8
14.52
16.68
13.92
14.56
17.68
22.56
25.12
26.28
25.8
25
24.12
23.52
19.24
14.8
12.72
8
7.28
6.08
3.36
7.28
7.88
6.72
3
4.16
2.6
-2.6
-3.96
-7.64
-9.04
-7.08
-9.96
-13.84
-12.44
-11.48
-5.84
-5.4
-5.16
-6.12
-6.56
-5.92
-3.96
-7
-15.2
-20.36
-24.64
-24.96
-24.6
-27
-24.52
-18.32
-14.6
-16.32
-10.32
-4.96
-6.72
-11.16
-18.28
-24.28
-23.56
-19.92
-18.68
-20.76
-22.24
-19.04
-9.44
-3.2
-1.28
-3.56
-7.6
-5.28
-3.56
-4.48
-6.2
-5.44
-13.6
-12.96
-9.56
-7.56
-5.64
-1.8
-1.2
1.4
3
4.36
2.08
-2.8
-6.76
-9.2
-9.6
-9.24
-9.84
-9.76
-6
-4.08
1.24
3.88
5.64
1.88
-3.36
-5.2
-3.36
-6.92
-6.28
-4.88
-6.4
-6.12
-6.52
-3.72
-2.4
1.24
1.12
2.4
-0.12
-4.04
-6.28
-7.84
-10.16
-13.8
-13.4
-6.32
-0.56
1.4
1.88
-0.68
-1.08
1.92
-0.48
-6.32
-10.64
-12.4
-13.92
-13.4
-12.96
-11.72
-9.88
-6
-3.72
1.6
-0.8
-3.92
-8.4
-10.56
-9.96
-12.76
-13.96
-13.6
-11.04
-10.84
-5.2
-0.48
5.76
8
4.68
3.64
2.16
2.92
2.8
-1.88
-6.04
-2.72
6.76
18.12
25.8
25.76
20.2
13.6
20.32
20.32
20.96
14.04
5.12
-1.44
-0.68
1.6
0.24
2.04
-1.08
-2.04
-0.84
1.52
-1.8
-4.4
-7.76
-12.48
-12.44
-13.96
-14.16
-13.88
-13.28
-9.44
-4.72
-2.8
-9.56
-17.12
-18.56
-16.24
-11.76
-6.72
-6.68
-14.08
-22.52
-27.12
-26.56
-19
-18.52
-15.6
-16.24
-13.92
-0.52
28.6
72.08
123.44
178.52
236.84
284.24
292.4
252.08
187.68
127.24
70.08
33.32
16.68
10.36
-2.6
-9.28
-14.96
-18
-20.6
-22.12
-29.04
-31.44
-33.8
-29.32
-22.76
-20.28
-19.6
-21.8
-26.8
-28
-27.8
-31.76
-32.2
-34.76
-35.84
-33.2
-28.44
-24.4
-25.64
-21.16
-23.64
-23.16
-25.44
-26.76
-30.92
-32.76
-34.64
-38.04
-36.04
-31.36
-29.72
-26.92
-25.28
-20.92
-19.48
-22.68
-21.76
-25.8
-31.12
-32.08
-31
-30.44
-28.44
-27.96
-31.36
-29.52
-25.96
-23.52
-20.12
-21.24
-22.48
-20.64
-21
-24.6
-26.52
-29.84
-28.76
-24.56
-18.16
-16.32
-16.72
-16.24
-14.76
-8.96
-7.32
-8.56
-13.96
-14.44
-16.28
-13.6
-12.92
-9.92
-6.24
-6.16
-3.68
0.48
1.52
3.16
6.64
6.28
8.8
9.24
9.6
5.32
6.12
7.12
9.8
14.96
21.52
24.68
27.92
25.48
20.88
19.36
22
16.72
14.12
11.84
10.72
11.68
12.48
16.12
18.92
15.16
14.52
11.04
9.32
6
0.68
-5.32
-8.04
-8.48
-9.6
-8.28
-9.08
-8.12
-10.52
-3.68
-2.8
0.2
-7.32
-11.24
-14.6
-16.76
-19.2
-21.84
-21.72
-21.04
-22.88
-21.32
-20.04
-20.32
-19.44
-16.48
-16.2
-13
-11.4
-12.04
-18.16
-19.2
-22.84
-24.04
-19.76
-18.8
-18.28
-21.52
-20.84
-13.84
-9.32
-8.96
-13.96
-17.4
-16.56
-15.96
-13.84
-14.16
-15.72
-18.64
-18.04
-14.52
-11.8
-11.12
-6.32
-5.2
-4.04
-0.24
-0.04
-2.52
-7
-9.04
-10.2
-10.72
-10.6
-12.72
-13.6
-13.04
-11.68
-0.8
1.04
4.84
7.08
8.76
6.04
-3.36
-9.76
-20.04
-23.68
-24.8
-22.76
-15.24
-3.24
4.76
15.64
14.44
3.72
-7.6
-11.4
-13.84
-13.16
-9.28
-7.16
-6.28
-1.52
-3.8
-4.88
-10.88
-9.12
-6.48
-5.28
-3.72
-5.4
-5.72
-9.12
-10.52
-11.6
-10.68
-6.88
-3.2
-0.24
0.48
1.92
-1.48
-2.16
-3.52
-6.16
-5.8
-5.6
-10.16
-13.12
-15.2
-13.44
-7.76
-0.84
1.96
1.48
-0.04
-0.72
-2.08
2.12
2.76
-1.88
-6.44
-6.44
-0.52
8.36
16.36
26.52
30.56
29.16
30.76
27.12
26
21.4
17.2
13.72
9.16
6.12
6.16
7.12
11.36
13.96
17.04
14.8
12.44
11.8
11.72
8.24
7
-0.6
-11
-16.72
-14.52
-14.4
-12.32
-6.92
-9.72
-6.84
-10.32
-8.96
-8.08
-6.68
-10.92
-14.56
-18.88
-18.6
-16.68
-10.76
-11.68
-13.32
-19.16
-22.32
-24.08
-9.72
22.16
66.4
126.2
198.48
276.16
328.12
330.24
283.12
210.28
140.52
87.6
61.32
51.48
44.84
30.72
23.16
16.08
11.2
1.92
-7.2
-16.92
-19.12
-17.04
-18
-13.76
-15.8
-17.52
-21.24
-19.4
-20.24
-21.32
-23
-29.12
-33.16
-30.16
-28.6
-27.28
-27
-23.68
-23.84
-21.72
-19.36
-18.44
-22.16
-24.16
-28.92
-28.32
-28.32
-26.24
-27.52
-26.24
-24.92
-21.68
-16.88
-16.68
-17.28
-21.4
-24.16
-22.24
-23.92
-29.28
-33.2
-33.16
-30.52
-27.32
-20.08
-19.48
-17.6
-18.32
-16.68
-17.8
-18.68
-20.08
-22.92
-27.44
-27.48
-25.48
-20.88
-20.6
-16.92
-12.88
-10.64
-5.48
-3.48
-3.12
-6.08
-9.4
-11
-5.44
-3.44
-2.44
-1.64
0.56
4.12
11.72
17.84
20.76
20.48
19.8
18.84
22.76
24.08
25.68
21.72
21.84
26.92
30.36
33.92
38.52
39.76
41.6
41.32
38.52
41.44
34.64
32.24
30.08
26.16
24.16
23.32
25.88
25.84
23.56
19.76
18.56
17.2
14.32
8.4
3.68
-1.6
-5.84
-6.88
-7.64
-7.04
-6.2
-8.88
-5.04
-3.04
-1.2
0.24
-4.56
-8.52
-10.32
-9.56
-13.12
-20.24
-24.76
-26.64
-22.76
-20.48
-21.56
-18.52
-16.72
-15.48
-13.64
-11.64
-13.4
-16.56
-20.12
-23
-23.12
-19.92
-21.04
-19.44
-18.4
-19.16
-14.48
-13.12
-10.2
-6.96
-9.84
-14.12
-18.72
-18.12
-18.64
-16.92
-14
-16.56
-15.96
-13.04
-9.48
-6.56
-3.32
-4.28
-4.72
-2.16
-0.6
2.16
-4.28
-5.52
-4.68
-3.12
-5.76
-8.84
-9.52
-8.88
-4.4
2.32
2.76
2.24
-0.4
-2.96
-1.84
0.8
-2.4
-7.92
-11.44
-12.52
-9.28
-5.84
-2.2
0.52
-0.04
0.48
4.6
2.84
2.04
-3.16
-6.32
-7.84
-8.52
-7.72
-5.36
-3.8
-2.08
-2.32
0.92
0.28
1.44
0.76
-0.84
-3.24
-5.68
-7.28
-8.92
-9.96
-7.6
-9.32
-4.84
-1.16
1.32
1.76
-2.28
-2.04
-2.96
-3.56
-3.12
-6.72
-13.4
-12.28
-10.24
-3.12
1.36
3.16
2.8
0.36
4.16
6.28
6.32
2.96
-2.72
-5.24
-3.92
0.2
9.4
19.72
25.36
27.16
24.72
26.56
26.96
26.6
24
17.56
9.72
8.2
5.92
4.32
3.68
5
9.72
13.6
11.4
8.4
0.88
-1.44
-1.04
-4.4
-7.24
-14.64
-17.72
-17.32
-17
-13.6
-9.88
-5.68
-3.12
-7.08
-6.6
-2.16
-2.92
-8.32
-13.12
-16.48
-18.88
-15.84
-14.64
-11.24
-11.4
-11.4
-9.92
-11.12
-4.76
20.68
64.04
123.68
195.6
268.88
316.48
312.56
261.92
193.44
130.2
80.96
57.4
51.32
43.6
32.88
24.04
18.6
14.6
6.96
-2.36
-5.08
-4.8
-4.36
-2.64
-3.92
-1.48
1.36
0.6
-10.08
-23.88
-34
-42.2
-44.92
-43.2
-39.08
-36.56
-34.04
-32.12
-29.28
-27.16
-22.56
-21.4
-21.84
-22.44
-23.48
-25.56
-28.56
-28.72
-30.48
-32.68
-30.24
-22.52
-18.92
-20.04
-19.44
-21.28
-20.64
-20.88
-23.28
-26.08
-29.44
-31.04
-33.56
-31.56
-28.08
-27.4
-24.76
-23.08
-22.64
-20.8
-18.48
-18.92
-24.12
-29.6
-33.64
-29.2
-27
-26.04
-24.48
-22.72
-24
-18.64
-16.28
-14.28
-15.08
-19.52
-18.88
-16.48
-17.48
-17.92
-17.56
-15.56
-7.24
-2.68
-0.4
-2.32
-3.24
-1.04
-1.68
4.84
9.44
9.84
12.92
11.64
9.08
18.12
25.28
26.88
26.28
23.52
20.76
22.88
27.36
28.92
24.84
22.56
19.64
20.12
21.52
24.56
23.92
23.68
24.24
25.32
19.36
12.64
3.28
-6.04
-6.08
-5.48
-6.6
-12.04
-13.44
-11.92
-9.24
-8.36
-7.76
-7.76
-7.56
-5
-8.4
-10.4
-12.16
-16.8
-23.04
-28.92
-30.96
-27.4
-26.84
-24.08
-22.8
-19.28
-17.92
-16.48
-12.8
-12.44
-16.84
-23.32
-31.52
-31.24
-29
-26.24
-24.44
-24.52
-19.12
-17.56
-12.36
-9.8
-8.72
-14.12
-19.64
-20.36
-21.72
-23.48
-25.2
-26.44
-24.52
-21.76
-13.44
-9.72
-7.56
-4.68
-3.56
-1.24
-1.48
-2.2
-3.52
-8.28
-13.16
-12.6
-11.56
-8.32
-2.96
-2.16
0.8
2.28
1.92
1.96
-3.48
-2.08
-0.6
-2.68
-2.84
-7.44
-10.44
-12.24
-9.88
-2.08
3.88
5.12
2.48
-2.92
-4.68
-7.56
-5.16
-9.12
-12.16
-18.64
-16.64
-9.52
-4.2
1.6
5.72
8
9.36
18.88
27
21.08
7.4
-8.4
-19.52
-28.28
-31.48
-26.28
-19.84
-14.12
-8.96
-2.88
3.4
9.92
7.96
-2.96
-15.64
-19.56
-15.96
-14.84
-16.16
-15.08
-13.6
-6.04
-2
-0.84
1.72
1.32
0.16
-0.2
-2.16
-4.92
-10.32
-12.24
-7.6
-1.6
9.92
20.84
29.08
26.48
23.08
22.56
21.4
19.16
16.28
11.84
6.76
4.96
4.92
8
9.64
8.52
6.84
6.28
4.92
3.72
-4.08
-11.16
-13.76
-13.4
-13.64
-14
-13.84
-13.84
-15.16
-11.48
-7.36
-5.76
-5.84
-7.84
-11.8
-13.92
-10.68
-10.28
-13.48
-18.64
-18.56
-16.76
-15.16
-15.56
-16.48
-22.16
-20.6
-6.04
30.88
79.84
132.2
191.44
253.36
298.96
301
257.64
195.32
129.96
73.96
45.36
41.68
33.12
21.16
15.32
7.64
0.88
-8.2
-15.6
-20.56
-22.04
-20.6
-19
-18.16
-19.52
-24.12
-30.4
-32.6
-30.64
-29.52
-30.08
-30.04
-31.28
-33.04
-30.8
-28.4
-30.8
-29.96
-30.2
-29.72
-29.28
-26.72
-28.56
-30.12
-31.52
-33.44
-31.8
-30.8
-32.6
-32
-32.32
-32.44
-28.68
-26.24
-27.8
-28.32
-34.04
-35.56
-36.12
-34.24
-32.4
-33.28
-32.04
-32.28
-29.68
-25.84
-19.12
-21.68
-24.2
-26.92
-26.64
-26.04
-26.64
-27.48
-30.56
-30.48
-28.52
-23.8
-21.04
-19
-17.28
-16.96
-15.72
-14.64
-14.4
-13.56
-17.2
-18.96
-17.4
-12.24
-8.2
-6.4
-4.44
-3.24
1.48
4.76
5.36
4.84
3
0.32
0.92
2.76
4.16
8.24
10.4
13.24
20.04
25.08
26.76
23.08
21.84
21.36
27.16
30.16
29.6
29.8
28.32
28.6
30.72
29.64
27.72
27
24.6
24.12
23.84
24.4
24.4
21.52
12.16
2.4
-2
-3.48
-2.2
-0.8
0.68
0.28
2.56
1.88
1.64
-2.76
-5.76
-9.52
-7.2
-8.12
-13.52
-12.88
-10.56
-10.12
-5.84
-1.6
-2.4
-4.04
-6.16
-6.84
-8
-6.68
-8.08
-9.88
-15.36
-16.28
-14.4
-11.72
-8.12
-12.84
-13.92
-15.44
-13.32
-10.08
-9
-10
-10.24
-15.44
-11.24
-10.08
-8.08
-9.32
-9.6
-7.16
-8.24
-6.64
-3.72
-4.72
-7.4
-5.04
-4.52
-2.2
1.88
0.04
-0.76
1.6
1.6
2.68
-5.68
-5.2
-10.52
-5.96
-0.88
3.24
4.6
7.68
6.64
0.6
0.6
1.84
-1.24
-0.24
-4.72
-7.36
-4.84
-1.52
-0.28
-1.92
-1.48
-0.28
1.64
6.48
3.4
1.68
-1.56
-4.52
-6.16
-6.88
-5.36
-2.84
-2.6
-0.12
3.2
7.24
5.2
3.12
1.08
-0.64
-1.96
-2.04
-3.64
-6.32
-7.76
-7.12
-2.12
1.36
4.6
1.8
-2.04
-4.2
-3.32
-3.24
-3.56
-6.56
-8.92
-10.76
-10.32
-5.76
-3.76
-2.24
-0.96
-1.68
3.36
3.08
3.84
3.92
0.6
-3.4
-4.92
-4.88
-4.44
-4.68
-4.64
0
7.24
10.32
8.32
7.32
5.04
7.08
12.68
17.52
21
24.16
26.68
25.44
27.44
27.88
32.16
31.44
32.6
26.84
24.52
20.72
17.52
11.52
11.28
6.52
7.08
6.88
6.12
6.8
3.2
1.76
0.8
0.16
-2
-5.84
-9.12
-13.12
-11.6
-12.32
-13.8
-14.08
-11.68
-11.96
-4.84
-1.6
-0.64
-3.44
-5.44
-8.16
-8.6
-5.68
-8.12
-12.92
-17.36
-16.72
-15.4
-15
-17.84
-16.44
-12.6
1.72
33.76
72.88
114.4
163.48
218.08
262.2
278.56
253.08
199.48
141.08
91.36
52.84
32.44
30.6
25.76
22
14.72
5.64
-3.88
-7.76
-13.44
-18.72
-21.32
-22.72
-28.56
-25.28
-24.52
-22.32
-24.04
-29.76
-31.12
-32.2
-32.88
-35.64
-38.16
-37.44
-33.36
-29.84
-28.76
-27.28
-29.4
-29.32
-29.24
-27.84
-28.12
-28.88
-31.76
-35.32
-37.96
-32.08
-30.04
-29.44
-28.44
-26.88
-25.28
-24.52
-23.36
-24.84
-27.04
-30.64
-31.6
-31.32
-30.76
-30.72
-28.64
-28.24
-23.28
-16.8
-14.12
-15.24
-21.16
-23.68
-25.76
-26.52
-28.32
-29.12
-31.36
-32.28
-28.32
-25.08
-20
-17.44
-18.88
-17.92
-17.92
-16.48
-17.56
-19.32
-23.04
-23.84
-23.12
-21.12
-17.12
-12.92
-10.6
-9.12
-8
-5.36
-3.28
-1.8
-2.72
-4.32
-3.04
-2.08
-0.32
-1.16
1.92
4.08
5.2
12.12
16.28
13.8
15.76
15.12
15.24
16.8
17.28
15.48
14.4
16.64
19.6
26.8
31.04
32
31.12
28.72
28.68
24.28
22.8
20.68
11.52
4.04
2.28
3.44
7.4
9.4
10.8
7.8
10.84
7.08
1.92
-1.4
-4.8
-9
-9.04
-12.56
-11.4
-6.4
-6.52
-5.52
-3.28
-1.64
-2.92
-1.72
-7.76
-12.88
-11.2
-13.36
-15.24
-15.68
-16.84
-17.72
-16.44
-9.48
-5.2
-9.08
-12.64
-17.64
-19.04
-16.36
-12.36
-13.16
-15.88
-16.04
-12.96
-8.64
-9.04
-9.88
-11.6
-14.48
-14.76
-13
-13.72
-12.24
-11.44
-9.12
-3.68
-2.08
2.8
1.08
0.56
-2.68
-1.48
-4
-6.08
-7.48
-8.4
-9
-5.44
-0.56
5.52
7.04
6.8
3.92
5.32
5
2.92
-4.56
-7.72
-8
-1.96
1.16
3.56
1.56
2.76
1.24
0
-1
1.48
-0.72
-1.68
-5.2
-3.56
-2.88
-2.8
-0.6
-1.08
0.96
3.04
7.4
6
4.2
0.84
-0.36
-3.6
-5.16
-9.68
-8.96
-7.76
-4.52
-5.96
-0.12
-1.04
3.4
1
1.16
0.72
2.32
-1.88
-4.36
-7.68
-12.96
-11.08
-8.04
-4.52
0.28
1.4
1.84
2.2
3.24
3.72
3.24
-3.84
-9.28
-6.8
-2.12
-1.32
1.52
2.24
0.12
2.2
9.64
9.84
8.84
5.36
3.04
4.92
13.36
12.8
14.64
20.6
27.56
28.36
25.12
23.44
21.12
18.6
14.68
14.28
12.88
12.64
10.36
5.2
1.08
1.28
1.2
2.16
4.04
3.56
2.4
-2.16
-3
-4.48
-3.64
-7.64
-13.88
-15.08
-13.36
-10.2
-12.32
-12.4
-11.48
-10.24
-10.72
-7.24
-5.04
-7.44
-11.64
-15.72
-13.28
-10.4
-11.72
-14.52
-19.68
-19.8
-20.2
-18.04
-17.64
-10.04
10.4
48.84
94.52
146.32
207.84
261.72
287.64
271.56
227.04
173.92
122.56
70.76
37.32
27.8
22.16
11.56
2.44
-4.44
-8.08
-15.2
-21.52
-29.6
-32.12
-30.08
-29.52
-24.4
-20.84
-23.24
-23.76
-28.36
-31.48
-33.52
-36.28
-40.4
-39.56
-37.64
-36.08
-32.28
-25.76
-21.64
-20.04
-21.24
-23.6
-28.12
-32.52
-35.36
-38.24
-39.32
-41.36
-40.48
-36.08
-28.2
-27.6
-26.44
-24.76
-26.04
-23.52
-24.96
-29.24
-35.12
-38.04
-39.2
-39.2
-38.16
-35.68
-33.68
-31.36
-26.2
-23.76
-21.16
-21.68
-27
-31.16
-27.04
-30.04
-28
-28.88
-28.8
-28.24
-26.4
-21.24
-17.12
-15.44
-13.96
-14.4
-13.88
-13.12
-13.16
-14.08
-20.04
-21.72
-17.56
-12.16
-8.48
-4.2
-2.28
0.52
4.8
5.4
8.04
8.96
6.92
2.96
2.92
3.88
8
17.52
16.24
16.72
18.52
21.04
26.12
27.64
27.16
22.96
21.48
20.36
19.6
18.04
18.16
19.76
21.48
26.84
26.68
25.48
20.72
16.24
13.64
13.36
13.12
8.52
0.08
-3.2
-4.84
-0.96
-0.32
1.88
1.64
-0.64
-0.48
-2.2
-0.84
-4.16
-10.2
-14.64
-17.12
-15.6
-12.36
-12.56
-8.88
-8.68
-7
-3.44
-6.6
-8.24
-9.72
-10.88
-11.92
-11.44
-12.8
-15.12
-19.04
-19.36
-19.44
-14.16
-10.84
-11
-15.32
-18.6
-16.88
-14.76
-11.6
-13.76
-15.32
-19
-15.92
-10.36
-6.32
-7.96
-9.36
-13.4
-13.24
-12.4
-8.92
-4.6
-6.16
-2.64
-1.96
2.4
1.76
2.52
0.4
-1.28
-4.88
-7.36
-9.64
-8.96
-8.68
-7.68
-3.52
-0.08
3.44
3.6
1.64
-2.84
-0.08
-1.88
-1.24
-4.6
-8.04
-13.24
-13.2
-5.12
-5.24
0.24
1.68
0.04
-0.96
-1.44
-3.6
-5.12
-4.36
-8.72
-10.24
-9.68
-7.8
-6.92
-4.08
-5.48
-2
-0.8
0.2
-2.24
-6
-5.52
-8.84
-8.32
-10.04
-9.36
-7.48
-8.68
-6.12
-2.6
-1.04
-0.84
-2.76
-6.16
-6.08
-4.72
-6.04
-11.56
-13.2
-16.4
-13.92
-9.36
-4.72
-3.28
-2.44
-4.2
-6.2
-2.96
-4.04
-5.64
-6
-8.6
-9.16
-9.48
-10.96
-9.28
-9.64
-5.96
-2.24
3.72
5.8
2.08
1.04
-3.4
-3.76
-0.44
2.2
6.12
11.92
18.92
26.52
30.2
31
26.2
26.64
24.24
21.12
17.64
14.32
10.84
4.84
4.92
6.84
10.56
10.24
11.12
8.08
5.4
4.88
1.32
0.08
-3.16
-7.56
-12.04
-15.24
-12.44
-9.68
-5.92
-7
-8.08
-7.4
-4.24
-1.84
-3.52
-7.76
-9.92
-13.36
-15.12
-14.52
-16.76
-19.72
-18.92
-19.28
-18.56
-17.88
-17.6
-11.04
11.2
50.96
95.64
151.16
214.4
268.92
287.72
257.6
200.36
145.04
94
56.88
42.16
38.48
32.48
25.12
18.88
9.64
3.08
-4.52
-11.92
-15.04
-20.24
-21.32
-21.32
-18.52
-16.52
-15.12
-17.96
-21.16
-25.4
-26.8
-28.52
-30.08
-31.36
-34.28
-31.4
-27.64
-23.68
-22.04
-20.84
-21.36
-21.08
-20.44
-20.76
-26.2
-29.92
-31.4
-34.64
-30.52
-31.8
-23.04
-21
-18.28
-19.96
-17.6
-19.48
-21.76
-26.12
-29.32
-31.96
-34.72
-31.24
-29.2
-24.28
-22.48
-22.16
-19.52
-15.36
-15.12
-14.92
-21.08
-24.4
-25.6
-25.32
-25.12
-25.6
-24.48
-22.6
-17.76
-12.64
-10.84
-8.84
-10.4
-12.28
-10.56
-8.84
-8.12
-8.76
-11.4
-14.8
-7.72
-2
3.72
8.84
8.76
8.8
10.12
16
17.72
18.56
19.32
18.52
14.92
17.24
19.2
20.84
24.6
23.52
25.16
31.84
33.12
34.28
33.12
30.16
28.08
28.36
24.8
19.12
17
13.64
16.28
18.28
21.2
18.2
12.8
11
7.92
6.04
2.92
-3.6
-9.96
-12.44
-13.44
-6.68
-5.72
-5.68
-5.6
-8.76
-10.2
-8.16
-7.36
-11.36
-13.44
-18.96
-21.4
-18.92
-15
-12.2
-14.16
-13.96
-10.96
-9.16
-9.88
-7.44
-11.68
-16.04
-21.24
-23.36
-23.64
-25.96
-29.16
-27.56
-20.04
-11.64
-8.04
-7.24
-8.56
-11.04
-12.16
-12.36
-15.44
-18.24
-24.08
-27.96
-23.04
-17.28
-12.8
-10.44
-10.76
-10.84
-8.88
-5.36
-3.96
-1.28
-4.96
-11
-12.6
-10.76
-9
-6.68
-7.48
-7.16
-4.08
0.24
1
0.36
-1.36
-3.92
-2.84
-4.2
-6
-9.48
-12.8
-11.68
-9.72
-4.52
0.44
-0.2
-2.28
-4.92
-2.76
-1.4
-3.48
-5.84
-10.64
-11.92
-14.36
-10.32
-6.36
-4.12
-2.12
-4.76
-2.88
-3.48
-2.36
-1.96
-7.16
-12.56
-9.32
-8.88
-8.24
-6.24
-6.96
-7.72
-3.88
-1.8
1.08
-1.52
-6.36
-7.92
-7.2
-9.8
-10.64
-12.04
-13.48
-12.32
-10.2
-6.16
-6.52
-1.32
-4.36
-4.84
-5.8
-5.6
-7
-8.44
-14.32
-16.76
-15.32
-13.32
-7.24
-3.24
-4.6
-5.32
-3.4
-1.04
-1
-1.76
-3.92
-5.12
-8.12
-5.8
-1
5.16
9.52
16.72
24.36
31.6
31.68
28.36
24.72
19.16
15.08
11.04
9
7.6
7.56
8.8
12.32
14.32
11.04
9.36
4.6
0.4
-2.16
-7.92
-6.96
-7.88
-10.88
-13.32
-11.52
-8.6
-8.08
-5
-8.12
-8.88
-6.92
-5.28
-4.96
-4.8
-8.88
-11.96
-17.2
-17.72
-14.96
-12.72
-14.16
-17.12
-18.4
-20.4
-13.52
-1.76
23.64
54.72
103.56
164.32
231
277.68
282.56
240.76
178.16
122
82.68
60.68
53.68
50.8
44
37.92
31.68
22.52
11.44
-2.84
-10.08
-14.12
-12.68
-10.68
-12
-14.88
-14.92
-16.76
-14.6
-16.52
-20.76
-25.76
-28.04
-28.36
-30.44
-27.44
-25.04
-25.12
-22.72
-22.76
-20.64
-21.24
-24.92
-24.64
-28.04
-26.32
-29.6
-29.88
-31.72
-32.68
-27.28
-24.56
-19.16
-18.04
-19.92
-21.44
-21.16
-23.04
-20.28
-21.52
-23.8
-31.08
-32.04
-28.04
-23.72
-20.96
-20.4
-19.36
-18.32
-17.96
-15.64
-16.52
-18.56
-20.84
-24.08
-21.4
-20.56
-21.44
-20.04
-18.24
-11.6
-6.84
-3.72
-4.56
-7.08
-11.76
-12.92
-10.4
-11.48
-12.72
-9.76
-9.52
-3.28
1.32
8.96
9.64
8.96
7
4.32
7.52
9.28
5.76
6.84
6.6
9.56
14.76
20.84
26.48
27.88
27.6
27.48
30.2
32.36
33.76
28.72
22.36
22.28
23.96
21.04
22.4
21.76
21.44
20.8
21.44
19.32
18.28
12.64
9.16
8.2
4.04
1.12
-4
-6.72
-7.08
-6.6
-2.72
-3.24
1.64
-0.44
-1.44
-4.32
-2
-5.08
-7.32
-12
-17.04
-15.96
-11.24
-7.88
-8
-9.68
-10.88
-9.08
-6.12
-5.96
-5.68
-7.6
-9.92
-11.32
-13.84
-16.52
-20
-22.36
-23.8
-21.24
-17.24
-14.04
-11.52
-10.36
-11.24
-11.28
-12.48
-13.68
-17.68
-18.8
-16.84
-16.92
-14.36
-11.8
-8.88
-9.16
-10.96
-5.6
-2.24
-1.24
0.08
-1.32
-2.28
-4.24
-2
-2.84
-5.6
-6.64
-9.6
-7
-6
-1.96
-2.8
-1.92
-3.72
-0.44
-2.2
-3.44
-4.36
-6.2
-8.84
-7.08
-4.32
-3.8
-2.76
-2.56
-3.48
-1.68
1.36
1.52
2.92
-2.28
-4.2
-10.04
-9.96
-10.24
-10.44
-6.76
-5.6
-3.6
-0.64
-2.08
-1.84
-1.56
-4.04
-5.36
-6.56
-7.32
-8.4
-10.44
-9.6
-7
-3.04
0.96
3.88
-1.4
-0.04
-3.8
-3.52
-2.04
-4.28
-7.12
-11.2
-14.36
-10.6
-8.08
0
0.04
-3
-3.4
-1.16
0
-0.68
-4.2
-8.52
-10.44
-11.68
-10.88
-6.96
-6.28
-2.24
-0.28
2.48
7
8.4
5.72
5.12
2.84
1.4
2.6
0.6
3.76
7.84
18.6
29.52
35.44
32.4
28.08
25.6
26.24
26.72
24.52
19.2
13.56
11.8
9.12
10.16
14.92
14.96
13.04
11.04
8.76
5.24
1
-0.44
-1.8
-6.04
-9.8
-12.76
-10.68
-9.56
-7.88
-8.76
-3.76
-2.92
-2.44
-2.24
-7.32
-9.88
-6.28
-10.76
-9.64
-12.48
-14.52
-14.28
-13.6
-13.56
-14.84
-17.84
-19.36
-16
1.72
36.96
81.6
136.2
199.36
255.48
268.24
237.32
182
123.2
76.04
57.08
57.6
53.92
46.64
33.96
21.52
8.92
-4.8
-12.76
-17.2
-17
-20.2
-21.92
-24
-21.92
-22.48
-22.12
-22.32
-26.04
-26.56
-29.08
-27.72
-30.52
-33
-32.76
-34.04
-29.04
-25.04
-23.84
-25.36
-28.88
-29.04
-23
-24.64
-28.04
-31.48
-37.28
-36.72
-32.68
-28.08
-28
-26.88
-24.72
-25.12
-23.8
-19.84
-23.92
-28.52
-28.8
-31.04
-29.08
-28.48
-29.4
-28.72
-29.72
-25.72
-20.8
-16.16
-16.64
-19.52
-22.44
-23.16
-20.6
-22.08
-20.08
-23.44
-23.24
-20.48
-14.68
-11.76
-10.72
-10.04
-11.36
-9.16
-10.24
-8.04
-6.44
-4.88
-6.68
-6.24
-3.24
2.56
2.52
6.64
6.76
9.28
12.88
14.88
16.84
16.04
13.44
11.76
12.48
16.52
17.68
19.6
22.96
25.12
27.04
29.6
31.48
29.6
26.64
21.84
21
19.24
13.04
8.24
5.72
5.8
10.32
11.44
11.64
11.52
8.6
4.72
2.68
1.72
-0.12
-2.72
-7.84
-13.4
-11.72
-8.32
-4.52
-3.16
-1.12
-5.24
-7.4
-7.24
-7.28
-8.16
-13.2
-15.88
-16
-13.6
-13.72
-10.24
-9.48
-10.6
-9.48
-4.12
0.12
-5.72
-10.2
-16.16
-15.76
-15.92
-17.48
-15.72
-11.28
-8.92
-4.12
2.88
2.32
-0.16
-4.8
-3.44
-5.88
-9.32
-11.72
-12.56
-14.04
-11.28
-5.84
0.44
3.2
3.32
3.76
1.2
1.44
2.48
-1.56
-2
-1.16
-4.4
-1.64
6.64
7.92
8
7.4
5.56
3.12
5.48
4.52
3.56
0.2
0.24
-1.48
-2.2
-1.68
2.56
4.88
5.68
8.92
10.04
8.56
6.88
3.92
1
3.36
3.28
2.72
1.48
3.08
3.16
6.24
10.68
8.12
7.4
5.92
2.16
2.92
2.8
2.44
-0.52
-4.08
-6.4
0.96
4
7.28
4.92
6.28
7.36
10.88
10.04
6.76
2.8
-1.68
-4.84
-2.48
2.12
5.6
6.6
4.8
5.2
9.24
11.32
10.04
6.4
1.12
-0.96
-1.68
-2
-3.52
-0.76
-2.08
2.96
10
10.16
8.24
5.36
5.2
2.6
4.32
5.32
2.8
3.64
7.4
15.36
28.04
37.2
38.36
36.72
32.76
30.16
30.96
28.44
22.36
20.48
16.08
12.04
14.76
19.8
21.64
21.12
18.4
13.76
11.8
13.08
7.88
3.56
-1.4
-4.36
-4.92
-4.12
-4.32
-2.32
-1.48
-2.12
-2.12
-1
1.12
-0.6
-0.84
-6.08
-4.32
-5.6
-7.24
-12.28
-11.48
-10.56
-7.76
-7.68
-10.52
-9.52
-10.36
-2.16
17.52
52.08
86.68
131.44
188.8
238.72
249.36
212.24
150.08
95.44
58.52
36.48
32.36
32.36
24.2
19.92
15.76
4.36
-1.4
-11.68
-19.88
-22.04
-22.16
-21.72
-20.64
-19.92
-20.96
-26.8
-30.96
-31.16
-26.56
-26.88
-28.6
-34.96
-35.04
-32.16
-27.52
-25
-25.92
-28.16
-30.16
-30.12
-28.36
-26.68
-27
-35.24
-41.8
-42.04
-39.28
-36.68
-34.04
-34.04
-34.08
-32.4
-32.64
-35.68
-33.96
-34
-35.36
-37.68
-36.4
-34.56
-39.92
-46.28
-46.6
-41.48
-34.68
-29.2
-31.32
-33.24
-33.56
-33.68
-32.12
-28.6
-31.04
-36.04
-38.44
-35.88
-31.4
-26.4
-26.56
-29
-29.12
-25.2
-24.6
-23.88
-23.32
-24.76
-27
-27
-24.64
-21.44
-18.04
-13.12
-11.56
-7.28
-2.56
-0.56
-1.64
-2.84
-5.32
-6.88
-5.16
-2.2
-1.6
-3.16
-1.6
-2.6
1.68
7.72
10.68
10.92
8
6.88
3.24
1.6
-5.52
-7.52
-11.76
-11.16
-8.84
-7.76
-7.2
-9.12
-10.2
-15.24
-15.16
-15.44
-18.96
-21.4
-23.36
-27.28
-27.44
-26.76
-24.96
-24.48
-25.92
-27.04
-26.32
-23.24
-21.84
-24.92
-28.52
-30.36
-31.4
-33.84
-36.76
-35.12
-38.92
-38.84
-35.68
-32.28
-30.56
-29.16
-26.88
-28.36
-26.44
-24.32
-26.04
-31.96
-33.52
-31.8
-33.52
-30.24
-33.84
-30.2
-28.2
-24.72
-19.52
-18.16
-17.92
-20.68
-22.12
-23.08
-23.72
-23.16
-21.72
-24.52
-24.2
-22.64
-15.76
-11
-11
-6.16
-6.48
-6.4
-4.52
-2.36
-4.52
-4.56
-9.6
-12.64
-12.92
-9.36
-7.72
-3.84
-2.12
-3.32
-0.96
-0.4
-0.52
0.4
-4
-7.24
-5.4
-7.68
-7
-6.36
-5.68
-2.08
2.36
6.12
5.68
5.32
-0.68
-3.92
-0.36
-0.68
-2.88
-10.12
-9.48
-10
-3.6
-1.08
0.48
-0.64
1
2.32
5.04
3.76
4.44
-0.8
-6.08
-8.48
-6.08
-2.8
-1.4
-0.92
1.8
5.8
6.28
7.24
4.96
1.76
1.28
-2.28
-0.84
-1.2
-2.64
-2.24
-4
1.44
5.16
9.2
11.76
10.96
7.6
5.2
6.56
9.04
13.8
15.6
22.12
24.32
30.56
32.28
31.32
32.56
32.36
31.72
30.28
28.96
24.4
19.12
14.04
10.04
11.52
15.92
15.4
14.24
12.32
10.64
11.4
11.8
9.48
9.44
3.04
-2.32
-2.52
-2.72
-6.04
-8.36
-7.72
-0.76
2.08
7.36
8.04
4.4
-0.12
-0.04
0.28
1.8
-2.36
-6.52
-8.8
-7.28
-4.92
-8.2
-12.36
-16
-18.32
-9.92
14.48
49.4
94.8
146.32
208.16
263.84
292.4
272.84
222.24
168.12
119
78.24
61.68
60.08
53.56
42.56
31.96
27.72
21.24
11.92
2.52
-3.88
-7.48
-8.48
-3.72
-1.64
-6
-9.52
-16
-19.12
-17.84
-17.08
-23.64
-24.76
-29.2
-27.36
-24.2
-20.32
-17.44
-16.16
-15.36
-15.96
-14.44
-16.6
-19.24
-20.4
-25.8
-27.92
-28.48
-26.64
-23.36
-23.36
-21.56
-21.2
-15.52
-13.16
-16.6
-19.56
-23.04
-24.24
-26.84
-24.08
-25.44
-27.36
-28.16
-24.04
-18.32
-14.16
-12.44
-13.96
-16.4
-17.24
-17.88
-17.24
-16.6
-18.8
-22.04
-20.88
-14.84
-9.92
-8
-5.72
-5.92
-5.48
-3.2
-1.2
-2.6
-5.76
-5.92
-6.36
-3.56
2.36
3.6
4.56
5.44
5.52
10.32
17.8
21.24
22.4
20
17.68
19.36
18.96
18.84
20.92
24.12
25.84
28.4
30.16
31.76
30.28
31.76
33.04
33.68
31.28
23.12
19.88
17.92
20.12
21.12
20.92
16.56
15.44
12.24
7.92
9.24
8.44
8.24
2.32
-2.36
-6.36
-6
-6.72
-6.48
-4.76
-4.24
-4.36
-3.56
-4.84
-4.52
-7.32
-11.6
-14.6
-14.48
-14.6
-17.08
-17.6
-17.36
-17.68
-12.48
-9.92
-9.12
-8.16
-8.76
-12.24
-10.52
-10.52
-13.28
-17.84
-21.44
-20.6
-15.4
-13.68
-14
-15.4
-17.48
-18.52
-15.16
-11.44
-12.72
-14.04
-16.36
-16.92
-17.36
-17.16
-17.64
-18
-18.24
-17.4
-13.28
-11.76
-9.12
-6.68
-4.96
-7.12
-1.8
-2.04
-0.24
-2.8
-5.28
-10.84
-10.12
-10.16
-12.76
-9.16
-6.76
-3.64
1.64
5.32
6.44
4.12
0.6
-4.2
-1.12
1.2
-1.08
-7.04
-10.76
-8.36
-5.28
0.68
2
2.96
1.04
-2.2
0.2
-0.68
-1.52
-4.08
-7.48
-8.36
-7.16
-4.72
-1.56
-0.64
-3.36
1.64
4.48
6.04
1.48
-2.2
-3.08
-6.6
-7.96
-8.16
-7.72
-8.2
-6.2
-4.32
-1.12
3.92
2.52
1.32
-0.28
-3.08
-3.2
1.24
-4.04
-7.24
-10.76
-8.32
-5.44
-0.68
0.44
-0.36
-4.64
-3.84
-3.6
0.52
-2.52
-5
-7.44
-7.76
-7.52
-5.16
-4.2
-5.32
-1.12
2
3.72
2.56
3.84
2.2
0.12
2.56
8.08
15.64
19.92
22.68
22
20.08
22.12
25.36
26.28
24.44
19.84
16.4
15.36
14.84
11.32
7.96
4.44
2.28
5.8
9.8
11.08
6.44
2.24
0.32
-0.32
-0.72
-4.76
-5.4
-9.04
-12.4
-14.2
-13.56
-11.92
-8.96
-7.6
-6.44
-3.8
-2.84
-4.48
-5.8
-10.92
-15.56
-15.44
-13.88
-14.68
-17.92
-19.24
-23.32
-26.12
-27.12
-27.36
-14.28
11.08
48.72
95.4
146.6
206.76
256.44
277.68
251.56
201.24
149.88
104.12
68.24
56.08
54.08
48.28
39.84
29.68
24
12.32
-1.96
-10.84
-14.16
-18.4
-22.64
-23.4
-21.36
-22.52
-22.6
-24.48
-25.8
-30.88
-34.48
-38.2
-36.56
-36.36
-37.68
-34.84
-34.08
-29.88
-26.04
-23.96
-28.92
-29.72
-31.16
-28.4
-31.12
-31.76
-35.96
-38.64
-34.84
-30.28
-25.52
-21.2
-23.28
-25.12
-26.08
-28.12
-25.68
-28.76
-32.2
-31.88
-37.16
-35.88
-35.12
-32.56
-29.64
-27.32
-25.36
-21.44
-16.56
-17.4
-22.04
-21.88
-27.4
-32.24
-28.64
-30.24
-27.36
-23.64
-21.72
-19.64
-17.6
-10.8
-11.76
-11.64
-12.28
-11.12
-10.88
-12.72
-13
-13.56
-10.68
-7.08
-1.24
3.8
5
5.72
5.72
6.68
7.84
8.08
6.64
6.64
7.36
11.48
16.32
19.92
22.8
22.52
25.48
27.68
28.44
30.4
28.88
27.28
26.08
22.16
20.88
23.08
23.08
20.8
20.56
25.36
24.32
23.6
17.44
14.6
10.2
8.6
5.56
4.04
0.56
-3.8
-4.76
-5.24
1.12
-1
-1.72
-4.28
-3.52
-4.64
-5.16
-7.76
-8.72
-15.24
-19.64
-17.12
-14.16
-12.52
-9.08
-8.32
-5.36
-4.04
-3.44
-3.48
-7.72
-9.36
-11.32
-9.88
-11.4
-11.88
-14.16
-12.52
-12.48
-11.24
-8.24
-11.28
-14.6
-18.28
-18.28
-15.08
-13.24
-12
-13.84
-14.68
-15.2
-13.68
-8.68
-6.44
-7.24
-11.96
-13.36
-11.76
-5.96
-2.44
-1.28
-3.28
-3
-1.12
2.16
1.64
-0.36
-3.84
-4.24
-7.6
-5.24
-2.72
-3.08
-3.8
-3.8
-1.28
3.56
6.04
6.12
3.36
1.2
-0.52
-0.92
-5.52
-10.12
-10.44
-6.76
-1.64
0.12
2.52
2.4
-1.96
-2.76
3.56
2.2
0.44
-0.84
-5.4
-9.08
-6.36
-4.8
-1.48
-1.76
0.76
0.6
-0.96
1.28
1.64
-0.8
-3.48
-6.76
-6.2
-7.04
-9.6
-5
-7.48
-3.88
0.72
6.32
5.72
3.96
0.36
-3.08
-3.84
-4.24
-1.6
-5.16
-8.76
-9.28
-5.88
0.48
3.08
4.04
4.44
2.52
4.84
4.16
4.36
1.96
-0.24
-1.72
0.52
5.92
8.32
8.76
11.44
12.48
17.8
19.8
20.08
19.52
24.76
26.44
32.12
37.6
37.76
37.28
34.84
30.4
30.12
34.24
33.8
31.04
26.44
23.96
22.08
21.84
18.72
14.4
10.84
9.48
11.96
14.48
14.16
6.4
1.24
1.52
2.76
6.12
2.44
-6
-12.04
-13.52
-11.28
-8.88
-5.28
-3.72
-2.92
-3.72
-3.08
-5.08
-7.88
-10.4
-10.24
-10.8
-15.16
-14.56
-17.32
-21.92
-20.24
-16.6
-15
-10.96
-11.32
-6.32
16.76
50.36
85.56
131.88
190.56
238.16
252.4
222.72
176.2
130.84
90.64
54.68
39.28
40.12
38.04
30.6
23.84
14.4
2.96
-8.52
-15.4
-20.04
-26.48
-28.76
-32.88
-31.96
-27.36
-25.76
-28.84
-34
-40.68
-40.2
-39.76
-37.32
-41.24
-42.72
-42.08
-39.36
-34.68
-33.88
-31.12
-31.36
-33.4
-37.68
-36.56
-37.96
-36.56
-38.88
-44.64
-44.2
-40.8
-34.2
-30.52
-25.52
-27.64
-33.84
-37
-35.44
-34.28
-36.68
-39.24
-43.76
-45.52
-41.16
-38.52
-35.88
-35.04
-34.2
-30.6
-29.92
-29.88
-27.24
-28.96
-34.24
-42.96
-41.68
-36.4
-32.04
-35.32
-31.72
-28.72
-24.08
-20.68
-21.96
-23.68
-25.12
-25
-23.44
-24.92
-28.68
-28.48
-26.96
-19.56
-15
-14.88
-16.16
-16.72
-12.08
-10.04
-6.64
-7.44
-8.84
-9.2
-14.24
-10.36
-6.12
-0.84
1.52
2.64
4.56
7
9.64
10.68
9.2
9.6
5.32
6
4.92
7.92
9.4
9.64
8.96
13.2
16.12
15.8
12.68
9.92
6.64
6.4
4.2
-0.84
-6.6
-11.48
-13
-9
-6
-3.88
-3.8
-7.08
-10.32
-12.16
-12.8
-15.92
-15
-20.04
-23.92
-22.08
-17.72
-18.76
-19.72
-19.48
-18.6
-17
-13.08
-15.8
-16.48
-18.2
-20.96
-19.92
-24.68
-28.08
-28.16
-30.72
-30.52
-25.64
-20.72
-15.16
-12.52
-10.2
-13.64
-17.16
-15.52
-19.32
-21.8
-23.96
-26
-20.48
-18.96
-15.84
-11.52
-8.12
-6.16
-0.84
-0.96
-0.88
-4.36
-3.64
-4
-5.64
-8.96
-9.48
-9.88
-7.44
-3.68
-2.88
3.12
4.4
1.04
0.96
1.16
-0.36
-0.16
-0.2
-2.76
-5.68
-7.24
-3.96
-0.36
-1.4
-0.32
0.04
1.64
4.2
1.36
-0.08
-3.72
-7.88
-10.56
-9.52
-9.12
-5.76
-5.24
-4.16
-2.96
-0.68
1.64
0.24
0.44
-3.72
-3.4
-6.92
-5.72
-10.6
-12
-12.6
-7.92
-4.08
-0.36
2.84
0.28
-2.88
-6.76
-6.12
-4.96
-6.6
-9.4
-12.2
-13.68
-14.36
-8.84
-3.92
-1.28
-5.12
-4.48
-1.84
-0.84
-5.52
-5.32
-8.76
-12.4
-11.68
-9.24
-7
-2.44
-2.24
-0.68
3.36
4.92
3.52
2.64
3.04
6.2
7.72
10.08
12
21.56
24.96
21.4
23.52
23.16
27.36
25.32
22.16
17.48
14.96
14
10.6
6.12
5.32
5.12
5.76
7.4
8.76
6.44
3.64
-0.44
-2.48
-2.28
-2.72
-5.6
-10.92
-15.28
-16.24
-14.6
-10.88
-10.12
-9.8
-8.24
-9.16
-1.32
-4.28
-7.08
-9.64
-11.68
-11.2
-13.72
-14.68
-14.92
-17.2
-19.48
-20.52
-23.12
-23.2
-17.24
-4.08
30.24
72.52
117.24
172.88
232.44
269.4
265
225.72
174.36
127.28
83.92
56.76
49.84
46.96
37.28
29.72
22.36
10.88
1.6
-3.52
-10.16
-13.52
-18.76
-13.68
-14.84
-14.92
-12.96
-15.92
-15.44
-18.84
-25.16
-26.68
-28
-27.92
-27.56
-24.96
-21.12
-20.08
-18.24
-17.24
-17.28
-18.12
-18.64
-23.04
-24.36
-23.76
-26.2
-27.08
-27.72
-27.24
-21.44
-19.44
-17.36
-20.24
-23.32
-19.28
-16.88
-17.24
-19.36
-22.68
-25.12
-28.12
-26.88
-23.32
-19.52
-18.6
-19.4
-17.36
-13.36
-11.24
-12.88
-17.16
-19.28
-18.76
-19.36
-22.24
-23.08
-19.48
-17.72
-12.88
-4.76
-3.84
-3.76
-6.64
-6.16
-2.68
-3.8
-5.32
-4.84
-9
-6.96
-3.92
1.68
4.6
10.04
13.24
12.2
17.08
15.52
16.2
16.32
13.92
10.44
14.2
17.2
22.16
26.88
25.12
28.84
31.88
34.08
37.12
36.68
34.24
31.48
30.04
27.64
25.52
24.6
20.72
23.56
26.72
32.36
32.44
27.72
22.8
17.52
16.16
14.56
14.24
11.04
5.2
-0.04
-4.72
-6.96
-8.92
-4.76
-2.6
-3
-6.16
-9.12
-12.32
-16.72
-17.96
-21
-18.28
-14.56
-10.72
-9.36
-7.32
-5.16
-3.88
-5.2
-8.04
-11.56
-15.28
-18.16
-20.28
-19.2
-16.44
-15.68
-11.72
-9.24
-2.32
0.8
4
1
-5.84
-9.36
-12.12
-11
-15.04
-13.92
-14.2
-10.32
-8.64
-4.36
-0.52
-0.6
-0.36
-3.12
-3.6
-4.88
-5.84
-5.88
-3.52
-3.92
-2.56
4.2
9.24
8.32
7.08
3.36
2.56
2.56
0.88
-0.76
-6.96
-8.08
-7.12
-4.84
-2.64
-1.32
0.6
-0.6
1.2
1.4
2.4
1.44
-3.36
-7.96
-8.16
-8.56
-11.64
-7.28
-5
-3.68
1.08
3.84
3.56
1.8
-2.16
-5.2
-4.16
-3
-6.28
-10.68
-10.6
-8.28
-4.16
-1.04
-0.48
1.32
0.28
-3.6
-3.92
-5.16
-6.24
-8.96
-13.16
-16.48
-14.4
-8.32
-6.28
-2.2
-0.64
-0.76
0.04
1
3.8
3.72
0.8
-2.84
-2.08
-1.44
-1.28
2.96
9.08
12.28
24.96
31.88
31.76
26.12
20.2
20.16
21.08
17.48
12.36
8.24
6.6
8.12
11.16
12.36
13.08
14.2
9.08
3.68
1.84
-4.24
-7.08
-9.76
-11.8
-13.76
-13.44
-14
-11.76
-9.32
-11.4
-11.2
-11.56
-9
-7.72
-8.64
-12.4
-18.08
-20.24
-20.36
-18.88
-16.48
-17.16
-22.72
-25.04
-28
-25.4
-14.68
10.56
49.48
100.56
161.68
229.48
274.44
272.08
218.48
157.6
109.8
71.12
56
54.44
51.32
43.56
36.44
24.48
12.64
-0.36
-15.44
-20.8
-23.6
-21.4
-19.12
-19.84
-23.96
-23.52
-21.68
-22.36
-23.52
-28.48
-32.32
-34.4
-35.44
-33.8
-32.56
-28.36
-30.12
-26.84
-26
-27.4
-25.44
-28.08
-29.28
-27.44
-25.4
-28.48
-28.36
-29.8
-27.44
-27.2
-26.92
-26.76
-24.76
-22
-25.04
-27.76
-30.16
-30.32
-32.32
-34.32
-37.96
-36.28
-33.16
-29.92
-23.48
-25.2
-25.24
-23.64
-24
-20.68
-20.76
-22.96
-24.88
-29.24
-27
-24.28
-23.04
-20.8
-18.24
-13.08
-10.4
-9.84
-10.08
-11.64
-10.8
-10.36
-6.64
-10.16
-10.12
-10.56
-7.08
0.32
6.8
11.04
13.96
7.6
11.44
15.8
16.56
21.12
19
15.48
12.56
12.32
20.88
24.48
29
31.24
31.28
34
35.72
33.16
31.92
27.64
22.52
17.92
17.92
19.72
20.56
20.2
18.84
17.92
16.96
17.64
14.44
7.08
5
3.72
1.64
1.36
-4.44
-7.56
-9
-7.6
-4.44
-4.8
-7.92
-9.96
-14.32
-15.04
-14.28
-15
-13.84
-14.44
-16.48
-14.64
-10.96
-8.36
-9.92
-11.96
-12.68
-13.64
-12.92
-14.52
-15.52
-14.04
-13.84
-12.36
-9.48
-11.72
-8.08
-8.4
-7.8
-8
-4.76
-5.88
-7.96
-8.48
-8.4
-8.92
-8.96
-8.64
-10.68
-11.72
-9.96
-7.4
-6.2
-4.68
-6.52
-9.56
-12.16
-9.76
-5
-2.52
-1
-2.8
-0.96
0.84
3.36
2.36
0.68
-0.44
-3.84
-7.04
-6.84
-7.8
-4.2
-3.12
-1.76
1.84
2.08
2.48
2.84
3.88
2.32
0
-1.64
-3.92
-6.68
-4.56
-2.96
-1.12
3.16
5.68
6.96
7.32
5.64
2.68
1.88
0.52
-4.16
-9.44
-12.12
-10.24
-4.72
-1.92
1.56
2.04
-1.64
-2.48
0.72
-1.44
-2.52
-5
-7.64
-7.84
-4.64
-5.84
-10.4
-7.6
-7.12
-0.64
3.44
3.6
0.88
-0.28
-5.04
-4.6
-1.4
-1.56
-5.44
-6.36
-1.72
6.24
14.72
22.12
29.44
30.96
27.28
22.16
22.36
21.12
15.52
10.4
5.76
4.76
7.4
9.44
11.24
11.68
9.08
4.6
2.96
-1
-1.56
-4.6
-8.04
-14.4
-16
-16.92
-14.2
-14.8
-12.92
-11.52
-10.32
-8.8
-11.16
-13.04
-14.48
-12.56
-15.04
-16.36
-17.92
-18.8
-19.04
-17.72
-18.08
-21.88
-23.6
-25
-15.28
18.76
56.08
100.8
159.48
224.2
271.48
275.32
233.08
174.28
118.84
75.16
54.36
53.8
50.36
45.28
36.8
25.56
14.2
3.96
-4.88
-9.2
-17.48
-21.32
-20.6
-21.24
-19.12
-16.64
-18.04
-21.04
-25.52
-27.84
-29.32
-28.56
-32.36
-32.64
-31.84
-31.68
-27.12
-21.68
-21.44
-24.92
-27.32
-28.36
-26.92
-26.32
-29.68
-31.72
-34.4
-31.76
-31.08
-26.04
-24.44
-24.84
-24.72
-23.24
-22.64
-22.76
-26.4
-27.64
-30.92
-31
-30.8
-29.16
-28.44
-26.28
-29.52
-24.12
-22.04
-17.56
-17.84
-19.88
-23.48
-22.68
-23.24
-23.44
-24.12
-26.52
-23.72
-18.68
-15.96
-12.52
-12.44
-9.96
-9.16
-8.28
-7.04
-6.24
-6.76
-10.88
-12.48
-8.88
-4.28
2.56
4.16
5.52
6.32
9.68
13.36
15.24
19.56
19.52
17.92
15.8
14.12
13.84
17.6
21.64
24.28
25.64
29.24
30.64
30.6
30.44
25.88
23
24.52
22.56
23.16
19.88
18.44
16.44
18.92
20.52
18.28
11.76
10.76
8.56
8.8
3.04
-1.24
-3.84
-11.4
-10.64
-6.16
-3
-2.28
-2.36
-2.36
-2.68
-1.76
-1.92
-4.48
-8.08
-11.6
-15.24
-15.44
-14.52
-14.12
-16.44
-18
-17.12
-12.44
-10.72
-8.48
-8.68
-8.92
-8.28
-9.84
-11.4
-13.32
-18.16
-18.36
-18.4
-14.72
-10.52
-9.6
-7.6
-8.32
-8.48
-5.84
-4.04
-11.48
-14.88
-16.8
-18.68
-19
-15.04
-12.44
-12.52
-13.6
-10.64
-7.04
-1.88
-2.72
-3
-3.08
-3.72
-3.76
-1.48
-1.64
-4.04
-8.72
-10.56
-9.52
-6.72
-3.2
-2.08
-3.24
-2.88
0.6
1.56
1.92
-1.8
-7.36
-8.88
-6.68
-7.64
-6.48
-7.48
-3
-2.04
0.52
2.76
4.36
0.64
-4.08
-4.08
-3.72
-4.44
-7.16
-10.88
-8.72
-7.04
-4.6
0.36
3.84
2.32
-0.16
0.12
0.12
0.16
-0.56
-6.16
-12.84
-12.8
-10.76
-7.16
-4.68
-4.72
-5.32
-4.92
0.36
2.64
-0.36
-2.28
-5.08
-5.76
-7.84
-7.72
-7.72
-4.88
-3.4
2.48
6.6
6.96
6.28
4.76
-0.28
-0.28
1.8
4.24
7.12
9.4
17.44
23.32
27.88
27.88
27.2
24.72
24.24
21.76
20.68
17.92
15.2
8.88
6.96
5.24
6.28
7.32
7.12
9.36
7.92
4.6
1
-0.4
-4.48
-7.04
-10.68
-10.92
-10.84
-12.64
-12.52
-11.4
-11.52
-8.32
-5.88
-5.4
-4.84
-11.12
-11.04
-14.72
-12.68
-13.28
-15.08
-17.76
-16.72
-17.88
-16.2
-19.12
-21.52
-24.16
-21.56
2.12
37.76
81.04
131.16
190.68
245.04
269.12
249.08
195.84
139.44
89.52
58.24
51.4
50.92
45.56
36.32
27.76
15.88
3.28
-5.52
-14.44
-19.32
-22.48
-22.96
-22.84
-19.28
-19.08
-22.52
-24.72
-26.8
-28.52
-30.52
-34.2
-36.84
-35.52
-37.4
-35.64
-31.4
-27.36
-25.6
-26.36
-24.96
-26.2
-26.36
-28.12
-29.08
-33.44
-35.96
-37.68
-36.68
-31
-29.8
-30.72
-28.96
-28.72
-27.44
-24.68
-18.8
-24.32
-27.12
-32.6
-33.24
-33.08
-33.92
-34.2
-31.96
-28
-23.48
-20.28
-22.92
-27
-28.96
-23.6
-25.56
-25.04
-26.52
-29.32
-29.08
-22.48
-21.32
-19.52
-13.96
-16.52
-16.04
-15.28
-11.44
-11.04
-12.88
-15.2
-18.64
-15.6
-12.4
-6.92
-4.84
-1.92
-1.24
2.12
6.36
9
8.76
8.16
6.24
5.64
7.84
8.6
11.76
12.16
14.28
17.12
22.84
27.12
27.6
25.52
25.32
23.72
24.76
22.2
21.52
18.48
17.6
21.08
22.2
23.24
22.2
21.68
18.28
16.32
14.92
11.48
6.68
3.4
-4.08
-4.96
-3.72
-2.12
-1.92
-2.84
-1.8
-3.6
0
-1.08
-3.48
-9.84
-12.64
-15.04
-16.52
-15.44
-13.12
-11.32
-11.12
-6.88
-6.08
-2.88
-4.8
-8.6
-15.04
-18.96
-19.16
-17.36
-20.88
-22.64
-20.24
-15.68
-8.36
-3.64
-4.76
-6.2
-10.68
-11.52
-10.76
-12.64
-16.52
-21.32
-27.36
-21.92
-17.48
-12.16
-5.72
-2.08
-5.12
-2.68
-3.08
-3.04
-5.8
-8.8
-10.56
-9.8
-5.68
-3.28
-1.64
-2.48
0.6
-0.92
2.64
2.76
1.44
-1.72
-7.76
-9.2
-9.44
-8.24
-7.32
-8.04
-6.64
-3.8
1.04
2.36
-0.04
1.2
-1.16
-1.4
-1.6
-3.12
-7.32
-12.08
-11.12
-8.8
-6.52
-2.84
0
2.48
0.04
-1.68
-0.2
-1.56
-4.64
-9.04
-14.24
-12.08
-10.4
-6.16
-7.92
-6.96
-6.2
-4
-0.56
-0.32
0.28
-2.88
-7.72
-9.44
-11.72
-11.8
-10.16
-8.96
-8.72
-7.84
-3.16
-0.12
0.32
-4.36
-6.8
-7.28
-8.2
-9.76
-13.08
-16.04
-16.44
-13.4
-9.32
-5.44
-2.92
-2.92
-3.24
-4.04
-1.6
0.92
2.12
1.68
2.36
5.44
11.08
21.12
25.24
30.44
30.16
30.2
27.88
29.04
27.8
22.52
17.84
15.56
13.24
13.32
12.32
10.6
13.08
13.2
12.8
11.92
9.8
4.16
0.16
-5.24
-5.92
-10.2
-12.4
-15.2
-13.08
-12
-5.6
-3.44
-2.96
-5.64
-8.84
-5.56
-6.84
-7.36
-9.04
-14.36
-17.6
-19.4
-17.6
-15.72
-15.32
-20.12
-22.64
-26.4
-22.68
-2.56
31.28
71.68
118.12
178.48
234.16
255.36
235.16
182.2
131.68
87.76
57.08
46.28
46
36.28
25.16
18.48
12.64
6.88
0.84
-7.72
-18
-23.12
-21.68
-17.64
-21.24
-23.84
-29.16
-29.88
-30.28
-29.92
-31.6
-36.12
-39.08
-41.8
-38.4
-35.36
-33.92
-33.68
-33.24
-30.8
-28.32
-27.96
-31.48
-32.96
-35.6
-34.16
-34.16
-30.92
-31.36
-34.28
-31.96
-27.84
-24.4
-22
-20.44
-23.96
-27.52
-29.04
-27.96
-28.44
-31.36
-34.04
-34.44
-31.56
-29.28
-24.08
-21.44
-22.96
-21.52
-23.92
-19.76
-19.16
-23.04
-28.48
-29.48
-30.24
-22.64
-19.8
-16.64
-18.24
-16.48
-11.84
-8.6
-8.04
-10.88
-14.2
-15.08
-13.68
-14.84
-12.52
-8.96
-5
-4.92
-3.56
-0.88
5.72
9.08
9.68
6.96
9.48
8.36
8.8
7.6
6.84
9.28
12.8
17.44
23.68
27.4
29.24
27.8
27.2
29.28
28.92
29.04
25.64
23.4
21.6
19.92
25.44
28.24
25.76
21.72
22.76
22.36
25.8
21
17.88
14.28
8.96
6.72
8.12
4.64
2.56
-2.48
0.24
4.08
4.16
3.56
2.16
-4.64
-4.88
-5.64
-8.04
-10.28
-13.72
-14.16
-9.6
-7.64
-4.84
-1.92
-6.6
-7.2
-7.04
-5.76
-7.4
-10.6
-15.84
-22.36
-26.36
-24.28
-17.04
-12.64
-9.52
-8.76
-7.48
-5.84
-4.52
-6
-7.28
-14.28
-15.32
-18.64
-21.4
-20.76
-20.2
-16.72
-9.76
-5.04
0.12
-0.08
0.12
-1.88
-2.36
0.56
1.96
-3.04
-5.84
-7.04
-5.64
-3.36
0.76
4.12
2.88
1.72
0.68
3.12
2.44
1.16
-4.48
-8.6
-8.72
-7.52
-7.32
-4.04
-4.88
-1.68
-0.04
0.48
1.36
3.76
0.24
-2.96
-4.72
-5.88
-6.08
-8.8
-9.44
-5.24
-2.12
1
1.64
3.16
1.08
0.52
-1.04
0.56
-2.08
-4.24
-6.12
-8.96
-6.84
-4.76
-2.64
-2.48
-1.68
-1
-2.32
1.88
-0.76
-1
-2.48
-4.84
-8.92
-10.92
-9.96
-4.8
-4.56
-4.28
-4.76
-2.08
-2.68
-1.36
-4
-6.28
-5.88
-7.4
-8.56
-8.4
-9.36
-9.2
-6.08
-2.92
1.6
2.32
1.76
-1
0.32
2
0.48
-1.04
0.08
2.32
12.44
23.6
28.68
33
31.84
27.72
28.28
30.56
28.08
21.8
17.56
15.16
12.36
12.6
13.92
14.28
12.64
10.16
6.92
6
4.36
3.84
1.48
-3.76
-4.92
-4.4
-7.16
-9.04
-10.56
-10.08
-8.92
-5.6
-4.96
-1.84
-4.36
-5.96
-7.44
-7.84
-7.24
-9.64
-14.2
-19.24
-13.96
-11.92
-12.72
-14.32
-19.64
-21.48
-16.12
2
32.48
68.24
110.92
165.52
225.8
261.64
243.8
188.88
134.12
89.72
64.24
55.28
54.56
46.8
38.4
32.24
22.92
14.32
5.44
-9.64
-17.16
-19.08
-18.92
-19.44
-18.96
-18.72
-20.4
-24.16
-27.56
-29
-28.28
-30.8
-34.56
-36.64
-37.24
-33.24
-30.04
-25.44
-24.84
-25.56
-29.24
-27.16
-27.76
-27.84
-31.04
-34.6
-36.48
-34.6
-36.2
-35.12
-30.84
-29.2
-27.72
-24.52
-23.36
-23.2
-25.68
-28.64
-29.08
-31.84
-33.72
-34.64
-37.2
-33.96
-31.76
-28.16
-24.8
-21.6
-22.4
-27.04
-26.6
-23.68
-24.24
-24.96
-30.76
-30.6
-29.16
-24
-18.84
-15.12
-15.72
-17.44
-15.24
-13.04
-11.76
-13.72
-17.32
-15.92
-14.6
-13.64
-8.2
-8.16
-4.96
-4.32
2.08
4.24
8.32
9.64
10.92
9.08
7.36
9.52
9.36
10
9.32
12.56
14.8
20.48
25.56
28.96
28.24
27.72
26
27
27.32
25.72
19.8
18.56
18.92
19
22.32
22.4
21.76
22.28
19.56
15.96
14.32
13.56
7.96
3.36
-0.44
-0.56
-2.88
-2.32
-1.76
-1.6
2.8
-3
1.24
-1
-3.76
-3.76
-8.48
-9.16
-13.04
-14.04
-13.2
-12.56
-8.92
-6.92
-2.88
-4.24
-5.16
-9.04
-10.8
-12.52
-13.64
-19.16
-23.08
-22.6
-18.68
-10.24
-6.6
-3.04
-3.76
-4.64
-4.68
-5.64
-6.32
-12.6
-18.4
-21.52
-21.32
-18.88
-9.8
-6.36
-2.84
-3.36
-4.32
-1.28
-0.08
-1.2
-4.52
-8.32
-11.4
-9.28
-4.68
-1.84
-2.44
-0.16
2.16
3.68
3.52
0.24
-0.52
-1.88
-2.56
-1.68
-2.12
-4.04
-5.8
-3.4
-1.32
1.68
4.72
4.24
4.28
3
1
1.36
4.52
-2.48
-3.8
-6.76
-3.68
-1.32
1.76
1.8
2.96
4.56
4.52
5.08
5.84
5.28
0.52
-4.4
-4.76
-2.88
0.12
-0.36
0.72
-0.4
-0.16
3.32
6.16
6.68
4.6
1.12
-1.72
-2.88
-2.44
-3.52
-2.52
-4.04
-3.16
2.68
5.76
5.32
3.2
2.76
-1.36
0.84
1.88
-0.12
-2.6
-6.6
-8.76
-3.52
0.24
5.2
5.48
7.04
5.76
9.12
9
9.48
5.6
1.6
2.08
7.28
18.12
27.64
33.48
33.44
31.96
30.52
36.44
32.84
25.96
22.68
19
20.04
18.44
12.96
8.92
9.6
9.48
13.52
14.08
6.84
3
0.48
-1.4
-2.68
-4.48
-9.4
-13.92
-13.28
-12.4
-9.92
-6.16
-7.08
-8.36
-6.72
-10.68
-7.32
-7.28
-14.56
-15.44
-16.32
-19.04
-17.44
-15.76
-15.12
-16.44
-18.44
-22.84
-22.4
-18.36
-6.32
20.04
59.72
105.84
167.92
225.12
248.84
224.52
164.04
111.64
66.4
41.92
30.48
23.68
13.8
13.2
12.68
7.8
-3.96
-12.6
-23.04
-28.48
-29.04
-26.4
-24.36
-22.8
-23.32
-24.2
-25.2
-26.64
-29.96
-34.72
-36.76
-38.48
-37.92
-35.36
-30.8
-29.92
-30.88
-31.24
-27.92
-25.08
-27.04
-29.36
-31.56
-32.44
-31.68
-33.44
-38.76
-35.96
-36.44
-34.6
-29.6
-22.92
-24.6
-30.6
-31.88
-28.16
-25.44
-26.28
-31.4
-35
-34.36
-31.64
-29.16
-28.4
-25.36
-25.52
-24.2
-23.08
-21.6
-19.96
-20.28
-23.92
-27.04
-30.52
-28.08
-25.48
-23.96
-24.12
-19.2
-17.32
-14.16
-11.08
-8.56
-11.88
-14.24
-15.96
-14.32
-10.96
-12.56
-11.88
-8.8
-5.12
-1.44
4.44
4.8
6.08
6.68
6.44
9.04
11.32
9.12
5.72
5.24
5.92
14.72
20.32
22.4
22.32
24.76
27.16
28.76
30.4
25.2
23.8
20.72
17.44
15.76
19.16
16.04
20.72
21.04
18.08
17.44
17.64
17.44
15.24
10.12
5.6
1.32
1.12
-2.16
-2.28
-2.2
-2.32
-1.04
0.12
-0.48
-1.96
-2.68
-5.2
-8.24
-10.12
-13.72
-18.64
-23.08
-24.44
-15.6
-8.4
-6.44
-5.08
-2.88
-0.96
0.6
-1.44
-7.2
-10.08
-15.72
-19.56
-22.88
-19.04
-18.04
-14.52
-9.56
-4.44
-0.28
3.52
4.24
-0.68
-4.56
-10.4
-13.08
-19.08
-22.24
-23.36
-16.24
-9.92
-1.12
5.64
3.8
3.88
0.08
-0.72
0.92
-0.04
-4.2
-7.84
-6.96
-7.04
-4.56
-2.48
-2.64
-0.76
2.88
3.72
4.4
1.56
-3.76
-6.72
-5.28
-8.24
-9.76
-9.2
-9.8
-7.76
-5.88
-5
-3.48
2.2
2.84
2
-2.28
-3.32
-3
-6.12
-7.64
-10.96
-8.52
-8.52
-4.8
-2.16
-0.64
-3.76
-0.24
-1.12
-0.56
-2.76
-5.44
-10.56
-12.28
-13.52
-11.4
-7.48
-4.76
-4
-4.64
-6.96
-3.6
-2.48
-0.84
-3
-10.84
-16
-14.8
-10.16
-10.16
-9.16
-5.32
-3.56
1.72
3.28
1.72
2.96
3.72
0.68
0.76
3.56
6
5.8
14.76
19.8
25.8
27.56
26.08
24.96
22.6
19.84
17.52
14.4
8.72
2.84
-1.6
-1.68
2.24
5.24
2.48
6.4
4.04
-0.04
-1.48
-1.28
-3.4
-10.28
-15.88
-21.68
-21.28
-17.44
-15.2
-13
-12.84
-13.92
-10.28
-5.36
-7.76
-10.4
-11.68
-12.48
-12.36
-14.16
-19.8
-21.8
-18.76
-17.48
-15.36
-18.76
-21.16
-22.24
-13.56
13.68
58.08
113.2
171.28
237.52
284.76
285.92
240.72
182.76
120.88
67.52
40.16
27.12
16.68
3.72
-4.84
-6.52
-11.4
-18.16
-21.96
-26.96
-29.92
-33.84
-33.84
-28.28
-25.72
-25.76
-27.08
-29
-33.6
-35.24
-36.28
-35.12
-38.88
-38.64
-42.72
-38.64
-35.76
-30.16
-29.52
-31.44
-31.6
-32.68
-31.44
-32.28
-34.12
-35.88
-39.72
-40.48
-36.48
-32.36
-27.32
-28.6
-27.12
-26.96
-24.48
-23.64
-25.24
-29.92
-32.88
-33.6
-35.36
-32.28
-32.2
-28.08
-26.08
-23.44
-20.88
-16.8
-17.24
-18.52
-23.2
-25.84
-25.8
-23.64
-24.36
-25.16
-23.12
-21.08
-17.2
-10.8
-7.16
-7.84
-7.24
-8.56
-7.44
-4.16
-3.96
-5.84
-7.72
-7.8
-2.04
1.6
7.4
11.8
14.56
14.76
17.56
21.2
21.48
19.96
18.28
15.32
16.44
21.32
24.96
23.76
24.76
25.2
28.84
34.04
34.24
33.04
29.44
23.08
21.16
18.04
13.32
11.52
12.28
11.08
13.08
15.36
13.16
9.44
7.72
4.6
4.08
4.6
-0.24
-5
-10.52
-13.4
-10.32
-5.24
-5.8
-3.36
-5.64
-4.68
-2.52
-3.36
-7.92
-13.88
-21.44
-29.68
-28.28
-24.84
-22.28
-18.68
-11.4
-9.72
-6.92
-4.08
-3.56
-7
-10.2
-16
-15.32
-21.28
-23.4
-22.44
-18.6
-13
-8.88
-2.4
-1.48
-0.4
-2.84
-3.2
-2.48
-7.32
-13.52
-17.32
-19.48
-22.68
-14.76
-6.28
-2.12
-0.92
-2.12
-4.04
-1.24
2.48
-0.04
-4.52
-7.12
-9.36
-10.56
-6.72
-5.64
-1.52
1.08
1
3.6
4.96
3.44
0.76
-2.88
-4.36
-4.12
-3.64
-5.84
-7.08
-5.28
-4.52
0.88
1.92
2.56
2.92
-0.48
-1.24
-0.16
1.28
-4.44
-9.76
-8.92
-9.2
-6.68
-4.04
-1.72
-0.52
0.12
-2.72
1.72
1.84
-1
-5.52
-7.32
-11.72
-12
-6.48
-6
-4.24
-3.88
-1.96
-1.44
0.48
-0.96
-1.68
-5.44
-9.16
-8.12
-7.72
-8.92
-9.28
-8.84
-4.96
-0.84
3.96
2.52
1.68
1.4
0.68
0.6
1.76
-1.96
-3.16
0.88
6.52
15.96
26.04
31.24
32.36
30.2
29.4
28.04
27.32
23.64
17.12
11.56
9.44
9.4
11
16.76
17
14.52
12.68
14.48
11.6
5.4
1.96
0.36
-5.04
-6.68
-6.8
-7.72
-8.88
-11.04
-9.84
-6.68
-2.52
-1.6
-2.28
-5.4
-6.84
-8.56
-8.16
-9.76
-14.84
-15.76
-12.08
-10.4
-12.44
-18.24
-21.92
-22.2
-16.08
9.68
49.04
97.32
156.96
219.24
276.08
299.96
268.48
211.28
151.36
101.48
72.8
67.28
65.44
55.36
44.88
33.12
22.64
10.84
-1.56
-11.56
-18.96
-23
-21
-17.84
-15.68
-16.2
-17.8
-20.76
-26.16
-26.16
-25.84
-28.36
-33.72
-36.64
-33.08
-31.24
-27.28
-27.12
-24.84
-25.36
-26.88
-23.92
-24.24
-24.2
-27.88
-34.28
-31.56
-31.6
-30.28
-28.32
-27.12
-25.96
-23.76
-22.52
-18.24
-20.12
-23.2
-29.12
-30.88
-31.4
-30.6
-32.8
-34.28
-29.24
-24.04
-20
-18.8
-18.52
-19.08
-23.04
-23.2
-21.32
-21.12
-22.56
-25.64
-28.84
-26.44
-22.64
-15.52
-11.44
-11.2
-11.96
-9.48
-5.72
-3.88
-5
-6.76
-6.44
-5.84
-5.4
-0.2
5.68
7.12
10.32
14.6
17.76
23.2
23.24
20.28
16.28
16.44
17.72
22.2
19.76
21.24
23.2
24.76
31.96
36.24
36.64
34.4
30.4
29.56
32.36
32.48
27
19.68
14.12
14.56
17.44
15.24
16.44
13.96
9.32
7.04
10.08
9.2
-0.04
-4.68
-8.04
-11.24
-9.56
-6.92
-7.8
-6.88
-10.24
-9.12
-8.6
-8.76
-12.04
-17.28
-20.76
-24.96
-22.32
-22.32
-20.48
-18.44
-14.68
-13.76
-5.08
-6.8
-8.88
-10.88
-15.08
-17.88
-20.16
-21.24
-21.4
-22.28
-23.76
-19
-12.36
-6.16
-5.96
-9.16
-9.12
-10.28
-11.8
-11.6
-13.84
-18.84
-17.96
-17.88
-15.56
-11.76
-10.32
-7.12
-7.08
-6.4
-5.48
-7.52
-9.96
-13.08
-14.32
-11.84
-9.52
-4
-0.76
0.68
-4.2
-2.4
-1.4
0
-0.52
-5.56
-9.32
-13.6
-9.24
-5.28
-4.28
-4.2
-4.28
-3.28
-0.56
2.28
1.32
0.68
-1.76
-4.88
-6.8
-8.32
-6.96
-6.8
-8.76
-7.88
-3.32
-1.2
-0.52
-1.48
-2.52
-3.2
-1.96
-1.12
-4
-6.48
-10.12
-10.08
-5.32
-5.44
-0.88
-2.8
-6.12
-3.08
-0.24
-2.04
-2.8
-6.96
-8.04
-8.48
-7.44
-5.44
-2.72
-0.68
-1.16
-0.28
5.36
7.48
9.48
7.68
6.88
4.84
6.68
6.44
7.56
10.72
15.56
22.68
34
37.84
36.64
31.16
28.52
26.84
26.96
23.96
19.96
15.88
10.12
10.28
14.2
17.4
15.64
13.76
10.88
9.44
7.84
8.28
0.4
-6.36
-8.16
-11.32
-10.28
-10.2
-10.04
-9.56
-6.44
-6.28
-5.24
-7.8
-5.16
-7.56
-10.44
-11.2
-14.32
-13.56
-12.4
-14.24
-16.12
-15.88
-16.96
-16.88
-14.8
-8.6
9.08
43.6
84.4
129.4
184.24
243.12
270.04
255.16
204.08
151.24
98.2
64.36
52.56
51.64
45.92
38.48
27.32
19.4
9.32
-4.88
-12
-18.04
-20
-18.8
-10.84
-5.64
-6.6
-13.64
-25.04
-35.52
-40.56
-38.52
-35.76
-36.88
-40.12
-39.16
-37.04
-36.88
-32.08
-29.8
-24.72
-27.6
-30.92
-33.36
-33.44
-31.44
-34.8
-36.88
-38.92
-39.08
-33
-32.88
-31.04
-28.68
-29.6
-30.44
-30.76
-29.28
-26.28
-29.32
-33.8
-39.92
-42
-37.2
-36.12
-32.84
-33.96
-30.52
-26.76
-26.72
-26
-24.48
-29.4
-30.68
-32.28
-31.76
-31.52
-33.72
-32.92
-28.92
-22.44
-22.12
-21.24
-23.04
-22.28
-20.72
-15.8
-18.16
-18.6
-20
-19.48
-17.76
-13.08
-6.16
-5.6
-3.2
-3.04
-2.76
0.12
3.56
2.72
5.56
6.24
1.88
4.2
5.92
10.68
11.64
11.4
14.76
18.68
20.96
20.04
19.52
18.68
13.44
9.16
3.76
4.2
3.08
2.84
1.8
4.48
8.04
6.44
2.96
-3
-8.32
-10.64
-12.92
-17.24
-22.36
-28.08
-28.16
-24.32
-18.92
-12.44
-11.64
-14
-14.28
-13.24
-14.24
-14.12
-18.2
-27.28
-31.28
-31.96
-27.76
-26.64
-22.04
-17.48
-14.68
-11.24
-7.68
-7.64
-9.52
-12.68
-18.8
-18.88
-21.04
-22.68
-22.64
-21.48
-15.92
-12.32
-7.6
-6.08
-3.56
-4.36
-7.32
-7.68
-7.84
-7.96
-15.08
-19.56
-21.6
-14.68
-9.2
-4.8
-1.96
-6.44
-3.68
3.16
3.52
2.92
0.6
-4.16
-5.88
-7.36
-7.04
-6.2
-4.84
-3.6
-3.16
2.88
5.36
5.96
5.08
-0.84
-2.32
-2.68
-7.08
-5.76
-6.64
-8
-5.64
-3.2
-0.72
3.4
3.44
0.6
-4.64
-4.92
-5.36
-3.56
-3.96
-10.72
-12.6
-10.04
-6.92
-5.4
-3.88
-3.6
-3.72
-4.92
-3.4
-5.68
-7.12
-7.36
-10.8
-12.68
-11.72
-11.08
-10.04
-8.4
-7.84
-3.8
0.92
1.6
2.12
-0.88
-0.32
-1.8
1.52
-3.28
-1.16
5.56
12.68
22.2
27.96
29.28
28.04
26.92
25.68
26.68
25.16
18.76
14.24
7.6
7.72
7.4
10.64
13.56
15.28
10.76
7.48
4.28
7
2.4
-2.08
-8.4
-12.8
-12.44
-14.28
-12.52
-13.08
-13.08
-12.36
-7.96
-5.36
-6.52
-8.48
-8.96
-11.28
-13.52
-14.12
-16.68
-20.52
-18.44
-15.96
-14.12
-16.36
-20.8
-25.24
-21.44
-2.4
34.12
82.6
135.28
201.52
256.2
281.28
258.16
204.48
146.24
96.2
65.64
54.12
51.52
42.36
31.88
23.4
13.2
4.48
-2.92
-11.96
-16.04
-17.68
-20.6
-20.76
-17.52
-16.28
-17.88
-20.08
-20.28
-26.76
-29.2
-29.96
-30.28
-28.12
-30.08
-28.76
-25.8
-22.08
-21.72
-24.36
-25.92
-26.08
-23.28
-23.96
-26.32
-27.96
-31.24
-32.92
-29.92
-27.68
-22.76
-24
-20.52
-21.12
-19.84
-18.12
-20.12
-21.52
-25.68
-28.48
-27.12
-27.92
-27.56
-27.16
-25.16
-22.44
-21.24
-16
-15.52
-16.72
-18.68
-23
-18.28
-17.16
-19.8
-22.52
-20.16
-18.76
-14.76
-9.2
-10.96
-7.76
-8.44
-9.72
-4.8
-4.16
-5.32
-8.24
-9.8
-10.64
-7.68
-1.52
2.36
4.72
7.16
7.4
12.64
16.24
17.08
18.72
16.96
14.36
14.6
16.68
19.64
21.84
21.8
24.28
30.92
33.04
35.44
37.24
34.28
31.08
33.44
31.72
26.92
26.04
24.2
25.44
28.28
27.52
26.2
24.44
19.92
15.84
11.8
12.68
10.24
5.8
0.96
-2.8
-1.48
0.08
-1.56
1.12
-0.08
-1.84
0.16
1.88
-3.68
-8.76
-12.52
-20.4
-23.56
-25.08
-21.56
-16.68
-14.04
-8.32
-3.24
-0.64
0.2
-4.76
-9.16
-12.08
-14.8
-17.52
-20.24
-20.36
-22.44
-19.64
-12.12
-6.68
-3.44
-0.52
-1.48
-2.48
-3.96
-6
-9.76
-14.32
-22.84
-23.96
-18.08
-12.36
-3.76
-2.64
1.4
-0.92
2.12
2.88
2.84
1.84
-2.72
-6.4
-8.68
-5.76
-3.84
-1.44
-4.16
-2.2
0.44
4.6
4.56
5.04
-0.36
-2.68
-3.6
-4.56
-6.08
-7.56
-10.8
-7.6
-1.52
2.24
3.04
2.24
0.12
-2.44
-4
-3.56
-3.52
-6.4
-7.88
-12.32
-11.8
-6.6
-3.52
-1.72
-3
-2.88
-1.2
-0.8
-4.04
-9.56
-12.76
-13.6
-8.32
-7.84
-11.28
-12.32
-11.08
-9.4
-6.8
-1.84
-2.32
-4.84
-6.2
-10.68
-13.04
-13
-14.72
-16.24
-14.68
-13.76
-11.72
-8.04
-2.56
-0.32
2.04
2.4
-0.16
-0.84
-3.92
-6.56
-7.12
-4.56
4.96
12.8
18.84
25.6
25.04
23.44
20.92
18.48
21.32
20.88
13
5.44
3.96
4.32
7.88
9.88
10.2
8.16
3.64
6.08
-0.24
-3.48
-9.44
-14.6
-17.36
-17.08
-17.56
-17.04
-20.32
-20.16
-14.88
-8.92
-5.24
-3.64
-5.96
-8.04
-8.32
-9.6
-15.16
-17.8
-21.36
-21.76
-18.2
-19.12
-21.76
-27.96
-29.32
-30.76
-21.48
7.24
46.76
94.72
147.12
204.6
255.84
275.36
245.84
190.8
136.88
86.84
50.44
37.88
37.16
31.8
23.08
15.16
8.72
1.08
-9.8
-21.28
-28.72
-27.64
-24.64
-17.64
-16.92
-22.4
-30.08
-31.6
-30.56
-29.52
-29.96
-33.52
-41.2
-44.48
-41
-37.04
-37.08
-32.24
-31.56
-29.8
-27.52
-28.08
-28.08
-30.04
-31.36
-35.88
-37.72
-38.16
-36.52
-32.4
-32.16
-29.28
-24.76
-23.32
-24.96
-27.36
-29.16
-28.96
-29.44
-30.28
-32.24
-30.6
-29.84
-26.68
-24.48
-20.68
-21
-20.52
-21.16
-22.48
-19.64
-19.56
-20
-21.76
-23.6
-21.76
-17.28
-16.24
-12.88
-10.92
-8.24
-8.72
-6.6
-6.08
-12.08
-12.92
-8.36
-10.2
-7.96
-7.24
-4.96
3
4.4
5.48
11.96
15.44
19.52
19.08
19.08
17.2
17.68
18.56
20
19.6
19.48
20.2
27.32
29.4
34
32.8
35.88
37.56
39.6
40.72
39.16
33.16
26.68
22.24
24.96
27.44
31.72
35.16
35.24
35.36
30.72
24.56
18.64
14
8.44
4.32
0.88
5.28
7.16
9
6.44
4.32
6.32
6.44
5.76
4.76
0.28
-4.12
-8.88
-7.4
-7.08
-8.68
-9.76
-11.84
-10.52
-7.88
-6
-6.52
-5.16
-7.16
-3.24
-3.68
-7.84
-12.92
-17.36
-22.08
-22.8
-21.56
-20.2
-14.8
-12.68
-10.28
-4.16
-1.8
-0.96
-6.2
-9.28
-18
-19.28
-22.92
-22.52
-20.24
-14.72
-14.32
-12.2
-8
-4.56
3.04
6.8
2.6
-2.2
-3.52
-0.64
-2.4
-6.2
-11.16
-11
-8.8
-7.2
-4.48
-2.92
-0.4
3.88
5.32
5.48
4
-1.4
-7.64
-13.8
-14.88
-10.72
-3.36
0.28
-1.24
0
3.56
5.92
7.4
3.56
0.96
-1.64
-0.08
-4.2
-9.24
-12.08
-13.4
-5.84
1.72
4
3.64
-0.12
-3.68
-3.44
1.04
1.52
0.04
-6.2
-9.28
-13.44
-8.8
-9.24
-3.48
-2.2
-0.56
4.68
7.08
6.04
3.44
-1
-9.16
-10.28
-8.48
-8.84
-8.28
-6.8
-6.04
-0.96
3.52
-0.04
0.52
1.6
0.96
-2.6
-5.8
-4.92
-2.24
-2.48
-2.92
1.48
5.04
9
11.56
9.88
7.4
7.64
13.84
14.48
16.24
18.2
19.32
24.88
27.24
27.84
27.52
28.8
26.36
25.68
23.04
23.4
20.64
17.64
15.64
16.72
19.76
15.44
10.8
5.68
2.48
0.04
-0.12
-1.48
-6.08
-7.72
-7.48
-8.6
-3.72
-2.56
-7.56
-7.6
-11.04
-8.24
-7.52
-7.24
-10.68
-17.04
-21.72
-23.64
-21.56
-16.76
-17.6
-19.32
-23.32
-22.68
-18.32
-18.48
-22.6
-28.32
-28.84
-18.44
3.8
36.76
76.08
120.04
172.12
230.24
268
269.64
231.96
180.8
136.72
92.2
58.56
37.08
32.28
25
13.28
6.24
2.16
-1.6
-7.64
-17.12
-22.68
-23.04
-17.2
-13.52
-13.08
-19.44
-21.16
-25.56
-28.6
-30.76
-34.76
-38.36
-41.24
-38.56
-33.24
-30.68
-28.96
-30.12
-30.36
-24.52
-22.48
-28.04
-32.2
-35.32
-36.16
-38.68
-38.52
-37.84
-34.6
-34.32
-31.52
-28.76
-27.96
-26
-25.04
-25.56
-26.6
-28.76
-28.84
-30.6
-31.52
-33.72
-36
-32.6
-30.96
-27.28
-26.4
-20.28
-20.2
-23.88
-31.08
-34.36
-35.16
-34.8
-33.88
-28.28
-23.88
-18.28
-19.44
-18.6
-17.72
-16.88
-14.88
-8.48
-7.44
-10.6
-18.28
-25.16
-23.28
-18.84
-12.36
-10
-7.04
-0.2
5.6
6.56
3.52
-0.08
-1.04
0.64
1.56
1.72
1.64
-0.92
1.76
7.24
14.08
21.84
23.32
22.96
23.56
23.84
26.04
23.92
23.76
20
13.16
16.76
23.4
25.96
28.88
27.92
30.56
33.08
35.56
32.84
33.36
26.48
18.76
12.32
11.68
13.6
16.36
14.84
12.72
11.64
9
5.48
5.64
3.88
-1.68
-4.32
-6.68
-8.68
-7.96
-13.24
-14.88
-12.76
-9.12
-4.44
-1.2
-4.68
-7.68
-6.44
-5.96
-6.6
-9.6
-13.56
-15.24
-13.28
-12.52
-12.88
-17.28
-18
-16.88
-14.12
-16
-15.6
-16.92
-17.52
-16.2
-15.56
-15.2
-16.92
-14.84
-14.32
-16.88
-20.92
-19.8
-16.48
-13.08
-6.16
-3.68
-1.36
3.12
2
-1.92
-0.6
-3.08
-1.56
-2
-4.84
-7.04
-8.6
-13.44
-9.08
-4.08
4.24
3.92
2.8
0.6
-1.6
-3.52
-5.24
-2.64
-7.2
-11.4
-14.12
-12
-10.8
-5.96
0.32
-1.28
-3.44
-7.56
-8.72
-7.56
-3.16
-6.4
-7.2
-9.76
-9.4
-5.24
-4.2
-5.2
-4.92
-0.24
3.56
6.36
6.2
-1.68
-5.28
-6.52
-7.36
-10
-12.6
-13.32
-11.32
-6.32
-1.24
-1.52
-4.76
-3.88
-3.12
-0.24
-1.8
-3.16
-9.04
-13.68
-10.96
-11.92
-12.28
-10.64
-8.64
-7.8
-4
-4.08
-5.2
-6.24
-4.84
-6.4
-9.4
-10.2
-8.48
-4.48
-3.48
-2.68
1.2
7.68
9.08
12.16
11.28
3.44
-2.08
-2.64
0.36
8.56
12.28
22.32
28.28
27.2
23.24
26.84
29.32
28.56
23.68
21
19.76
17.52
10.92
5.2
5.88
6.88
8.8
10.96
10.2
6
3.36
1.28
-1.44
-4.76
-5.92
-8.88
-8.52
-8.32
-8.52
-2.44
0.52
3.88
-1.04
-7.64
-14.56
-18.72
-18.4
-15.48
-15.92
-16.96
-17.68
-19.6
-22.84
-22.72
-22.72
-19.72
-16.92
-16.76
-13.56
-6.4
11.88
45.44
80.84
128.84
185.44
230.64
242.28
210.2
156.2
107.24
65
35.04
21
18.2
10.6
4.08
2.24
-1.92
-3.08
-7.56
-11.64
-20.68
-23.84
-26.08
-26.4
-24.28
-18.88
-21.2
-20.8
-22.36
-28.44
-29.84
-33.16
-37.6
-37.52
-35.36
-26.32
-22.6
-26.08
-30.72
-31.4
-27.8
-24.4
-22.12
-20.96
-20.4
-27.64
-31.16
-34.24
-34.36
-32.12
-27.12
-24.4
-17.16
-17
-19.52
-18.2
-17.88
-22.6
-28.96
-28.48
-24.12
-21.36
-19.24
-17.8
-21.72
-20.92
-25.04
-24
-19.6
-19.28
-17.88
-21.24
-22.6
-23.16
-24.92
-25.24
-26.12
-22.92
-19.92
-13.24
-10.24
-8.08
-8.6
-9.12
-8.88
-10.12
-9.52
-9.08
-12.84
-16.48
-9.64
-1.8
4
6.64
6.52
8.6
11.32
14.16
13.72
16.4
15.84
15.16
15.2
14.72
18.48
18.32
19.28
22.88
27.96
34.4
35.28
34.16
32.84
29.68
28.08
30.28
31.32
31.04
28.04
28.04
27.96
29.56
31.84
33.52
32.72
30.52
25.92
20.44
14.88
8.32
3.88
3.88
7.2
11.44
11.36
7.88
7.4
10.28
14.36
13.52
6.68
1.48
-8.92
-16.12
-18.36
-21.36
-18.88
-17.28
-15.64
-12.88
-5.2
-0.84
3.44
4.2
-3.28
-3.24
-9.64
-15.6
-21.76
-26.52
-24.56
-21.76
-12.12
-2.68
5.8
4
-0.88
-5.12
-1.48
-0.36
-3.64
-13.52
-19.76
-22.8
-17.84
-11.04
-5.2
0.36
4.76
9.96
10.32
10.64
12.52
16.04
13.72
5.4
-3.72
-9.16
-11.48
-5.92
1.92
4.48
5.4
-3
-11.84
-12.76
-10.84
-6.16
-4.52
-5.72
-8.08
-10.64
-13.44
-12.16
-8.56
-3.12
-5.08
-4.16
-5.24
-3.04
-1.32
-5.68
-4.92
-9.12
-10.84
-9.56
-8.48
-9.04
-10.36
-7.92
-6.08
-3.32
-1.4
0
-2.04
-6.2
-5.56
-3.16
-6.24
-6.28
-11.44
-14.96
-11.12
-7.56
-0.68
-0.16
-1.36
-0.72
-0.56
-5
-8.92
-8.56
-9.32
-8.04
-5.24
2.12
3.64
6.2
6.96
7.52
9.44
6.92
4.2
-2.24
-3
-3.52
-6.92
-2.44
2.32
13.72
24.28
30.16
32.24
30.96
26.92
20.36
16.88
17.64
20
17.6
17.08
14.36
14.36
15
13.76
16.76
11.96
6.84
3.84
3.48
0.96
-1.24
-1.8
-1.28
-2.76
-7.32
-10.04
-12.56
-9.92
-5.88
-4.48
-8.24
-12.16
-9.68
-9.32
-6.8
-8.32
-10.44
-15.68
-20.2
-19.36
-19.04
-19.52
-21.4
-23.84
-25.68
-22.92
-10.48
18.72
60.2
103.56
163.36
226.88
276.44
272.2
215.68
150.12
93.04
59.52
45.84
39.84
23.32
11.48
3.84
-0.12
-5.52
-8.08
-15.44
-22.68
-24.52
-21.48
-18.56
-19.8
-21.08
-19.84
-18.16
-18.24
-20.92
-26.08
-28.6
-29.16
-26.64
-28
-27.92
-29.6
-29.36
-26.24
-21.44
-19.36
-14.04
-11.04
-10.6
-12.8
-20.4
-29
-33.6
-34.68
-32.24
-30.76
-22.6
-14.64
-11.72
-8.92
-9.72
-16.6
-21.92
-26.12
-30.88
-30.68
-33.36
-31.64
-27.08
-22.32
-19.12
-19.12
-20.48
-16.96
-19
-15.04
-19.32
-24.24
-27.64
-24.28
-22.16
-18.72
-13.28
-10.72
-13.52
-12.64
-7.88
-4.28
-5.28
-8.24
-11.96
-8.88
-6.48
-2.24
0.8
5.16
6.76
8.32
8.24
14.8
22.68
23.72
20.2
16.12
18.16
25.28
27.08
22.44
15.76
16.92
21.24
26
27.48
27.56
29.36
31.04
36.4
35.48
31.72
26.08
22.84
11
4.4
2.76
5.36
8.16
7.84
4.08
4.08
2.88
3.8
-1.64
-8.68
-11
-12.76
-14.52
-13.72
-14.16
-11.48
-10.44
-11.6
-15.76
-18.68
-20.04
-24.4
-23.76
-20.64
-20.04
-14.96
-14.4
-18.48
-22.48
-17.48
-13.08
-11
-12.44
-16.76
-21.4
-20.68
-18.76
-13.32
-12.56
-15.28
-18.44
-19.6
-12.72
-8.16
-4.88
-5.56
-8.88
-7.4
-4.2
-7.6
-7.64
-9.96
-8.96
-9.6
-6.84
-9.2
-5.6
-5.28
-3
-1.68
-1.96
-5.56
-11.48
-14.52
-17.32
-14
-9.36
-2.48
4.28
3.24
3.4
8.08
14.64
12.6
9
-0.2
-6.32
-13.32
-12.68
-6.48
-0.84
5.04
5.76
7.44
9.24
8.84
6.64
3.6
-1.32
-8.76
-13.92
-11.96
-8.4
-5.4
-0.76
0.28
2.16
5.92
0.52
-7.24
-10.6
-7.64
-3.52
-4.92
-2.16
-2.16
-2.56
-1.8
0.8
2.8
3.44
2.8
3.2
2.48
0
-0.96
-3.84
-8.28
-14.44
-12.48
-6.24
0.52
0.12
-4.04
-5.4
-0.44
1.88
3.32
9.24
12.52
10.68
5.08
-2.04
-4.04
-3.44
6.52
12.04
18.72
25.48
31.64
33.2
25.88
22
29.04
36.28
33.04
20.36
6.44
7.88
12.76
17.56
16.12
16.12
12.6
11.72
12.72
8.68
-4.6
-13.32
-13.44
-8.88
-8.8
-12.88
-18.96
-22.68
-14.68
-4.52
-2.36
-5.32
-7.32
-9.12
-14.2
-19.8
-27.08
-31.92
-26.92
-17.32
-13.24
-15.4
-21.24
-21.76
-25.2
-26.28
-19.12
8.24
57
115.88
184.6
255.72
302.8
296.28
246.04
181.68
114.64
61.2
32.8
20.72
11.04
-1.48
-7.68
-9.08
-7.48
-7.2
-13.28
-23.84
-30.84
-29.12
-26.96
-30.2
-30.96
-32.44
-26
-22.4
-27.4
-32.68
-35.56
-39.72
-37.8
-39.08
-38.4
-39.36
-37.44
-36.16
-34.16
-27.28
-22.64
-24.96
-30.12
-37.52
-41.24
-39.04
-39.08
-41.32
-37
-28
-25.16
-31.8
-39.04
-33.04
-25.56
-24.92
-25.8
-30.08
-32.92
-38.12
-34.4
-32.88
-33.32
-30.08
-29
-25.4
-24.68
-23.76
-25.4
-29.72
-29.76
-27.12
-27.2
-29.56
-31.08
-29.52
-23
-20.92
-20.96
-20.8
-19.52
-16.52
-8.76
-7.88
-11
-13.52
-14.88
-15.12
-14.32
-12.6
-1.88
4.44
4.2
6.04
12.24
15.2
15.16
18.2
21.6
25.52
23.92
20.72
17.64
19.4
18.16
21.6
27.24
32.08
40.32
43.52
42.44
35.2
29.52
24.2
21.64
20.56
14.8
9.8
4.8
9.2
15.8
20.68
18.88
15.36
11.84
5.76
3.64
-4.64
-17.28
-30.36
-36.04
-32.8
-26
-19.76
-6.2
-2.12
-5
-14.56
-23.8
-22.04
-18.76
-19.4
-22.76
-34.12
-41.44
-30.28
-20.36
-15
-16.4
-19.2
-16.12
-12.64
-11.08
-16.52
-25.68
-35.56
-37.92
-32.08
-28.32
-19.16
-18.32
-28.16
-27.48
-16.24
-6.32
-4.92
-9.4
-14.96
-17.44
-15.6
-24.2
-30.48
-34.24
-33.52
-23.52
-11.6
-1.48
0.52
1.28
0.8
-3.36
-8
-12.32
-11.96
-14.52
-19.52
-18.64
-14.84
-13.12
-10.8
-9.32
-12.4
-8.92
-3.84
-5.28
-7.68
-13.4
-19.64
-13.8
-7.16
-6.44
-10.44
-17.32
-20.44
-16.32
-7.52
-4.44
-6.96
-9.84
-11.72
-11.4
-14.24
-18.84
-24.36
-28.64
-28.64
-17.36
-11.52
-9.64
-9.24
-7.32
-6.96
-5.16
-5.16
-13.48
-19.2
-22
-18
-15.48
-12.68
-12.4
-11.2
-12.04
-14.52
-18.4
-16
-8.84
-4.32
-2.32
-4.76
-9.6
-11.84
-11.68
-11.04
-0.28
11.8
18.52
27.2
36.4
37.04
26.52
18.48
17.32
15
12.4
4.32
0.6
2.12
4.08
4.56
7.8
14.36
16.76
13.64
1.56
-6.16
-16.2
-24.4
-21.8
-19.28
-19.8
-20.08
-17.2
-15.96
-13.16
-15.36
-19.52
-23.08
-22.04
-17.8
-16.68
-14.44
-21.4
-30.08
-34.08
-32.6
-28.68
-26.48
-32
-37.52
-33.52
-10.6
28
79.28
143.28
214.32
284.12
327.2
324.88
270.28
188.24
124.68
80.2
53.32
34.08
14.04
1.04
0.64
-2.44
-13.16
-26.16
-32.36
-28.44
-23.72
-18.72
-15.48
-19.88
-26.96
-32.2
-32.04
-25.52
-25.56
-27.52
-31.44
-33.72
-35.04
-36.08
-38.48
-39.24
-36.24
-32.04
-27.68
-25.28
-25.28
-25.4
-24.4
-20.56
-20.24
-23.92
-26.92
-33.48
-35.24
-31.52
-26.96
-20.56
-18.36
-20.44
-24.32
-25.8
-22.48
-26.2
-30
-39.08
-50.68
-44.4
-25.4
-14.56
-12.96
-15.84
-21.16
-20.56
-21.72
-25.8
-20.88
-15.44
-25.28
-34.56
-26.44
-3.84
7.6
-5.84
-17.04
-7.4
13.52
20.56
9.68
0.6
-10.28
-14.6
-3.68
3.8
2.84
4.8
5.68
5.16
5.56
12.52
21.08
24.84
33.8
44.32
43.92
32.4
23.56
23.8
36.56
41.24
45.96
53.88
54.56
49.56
36.96
22.68
26.76
49
61.32
54.76
44.68
41.44
40.08
25.96
6.24
-6.04
-2.92
5.32
1
-0.56
-3.12
-10.36
-23.28
-15.88
9.96
28.56
22.24
-7.92
-29.72
-28.88
-14.36
-5.12
-4.44
-7.2
-7.36
-8.52
-13.88
-17
-21.32
-27.32
-42.56
-48.2
-28.68
7.68
17.08
1
-4.48
-7.84
-16.84
-18.96
-13.56
-11.48
-17.56
-29.08
-27.36
-20.04
-13.96
-17.48
-16.6
-5.64
5.28
10.84
4.36
-9.24
-15.64
-15.52
-14.76
-10.6
-6.04
-5.4
-10.52
-19
-24.84
-21.44
-8.6
-2.6
-3.76
-13.52
-21.88
-13.52
4.28
17.6
14.64
1.64
-9.2
-13.16
-11.64
-6.12
-0.36
-3.52
-16.76
-10.88
13.12
21.64
6.4
-10.48
-15.96
0.52
9
2.88
-20.84
-43.2
-35.2
1.44
34.76
30.32
5
-15.4
-25.36
-13.04
12.44
28.76
16.12
-5.6
-14.8
-25.16
-37.84
-40.96
-16.36
16.16
33.28
28.64
14.88
-3.72
-17.28
-17.8
-17.28
-20.44
-19
-7.28
4.24
12.28
19.64
33.84
44.8
43.84
24.24
3.36
3.96
19.64
33.12
34.24
24.32
9.72
-0.72
-7.16
-7.48
-5.2
-5.68
-9.32
-6.6
5.6
13.44
5
-13.12
-26.48
-27.88
-33.84
-40.08
-27.92
-0.68
9.28
1.4
-10.8
-15.92
-13.56
-12.48
-9.44
-8.68
-17.72
-27.48
-28.24
-21.88
-16.48
-17.96
-30.44
-42.08
-42.6
-39
-28.52
4.16
52.28
113
184.2
265.64
331.68
348.16
302.6
222.4
147.04
90.08
74.52
76.8
52.2
-0.32
-24.8
-1.6
21.24
14.68
-4.88
-20.4
-29.92
-38.36
-46.32
-37.24
-18.52
-11.92
-21.72
-31.68
-26.36
-13.88
-9.72
-13.64
-28
-41.84
-48.4
-29.64
-13.6
-9.8
-18.64
-28.44
-35.28
-32.36
-34.92
-53.64
-60.96
-53.52
-28.52
-15.64
-17.56
-34.48
-42.56
-37.72
-31.8
-21.6
-18.16
-22.92
-37.56
-35.44
-14.96
-1.52
-18.96
-46.56
-53.24
-39.28
-18.8
-13.32
-24.92
-26.28
-8.16
-1.6
-14.76
-30.84
-33.72
-38.32
-36.44
-34.72
-24.24
-18.32
-20.44
-25.52
-26.84
-6.12
14.84
22.08
10.84
2.36
3.76
6.68
-0.92
-11.92
-11.64
-1.92
15.52
29.32
30.76
23.44
18.96
19.4
20.96
16.96
23
29.84
32.36
31.8
31.76
26.08
29.56
48.04
61.16
59.2
57.2
57.84
47.6
36.52
16.6
-3.08
-0.92
23.36
45.56
50.4
36.04
21.32
0.92
-8.12
-10.64
-2.2
-2.2
-12.04
-16
-10.72
-4.32
-5.64
-13.24
-18.4
-17.96
-22.28
-24.84
-21.16
-9.44
-7.44
-6.28
-8.24
-16.84
-22.12
-28.6
-33.4
-36.84
-32.76
-27.28
-24.12
-15.24
-11.48
-9.04
-15.48
-25.56
-26
-17.08
-13.28
-11.96
-15.08
-12.16
-4
-0.04
-3.44
-9.48
-15.24
-18.68
-19.8
-16.32
-14.16
-20.28
-31.04
-32.12
-19.36
-4.32
-1.32
-0.88
-4.12
-12.12
-17.2
-17.8
-11
-6.36
-11.84
-16.76
-13.08
-10.4
-9.88
-10.44
-7.6
-0.32
7.24
3.4
-7.28
-10.52
-6.72
-4.44
-4.88
-11.96
-13.52
-6.6
5.64
5.12
-1.28
-3.76
-5.52
2.04
4.8
-2.76
-16.52
-22.08
-17.88
-18.76
-18.48
-17.2
-13.6
-7.2
1.16
1.96
2.8
6.64
-3.24
-25
-32.28
-19.8
-6.64
-4.84
-3.16
-3.16
-2.52
-2.12
-5.96
-9.36
-10.64
-2.24
8.72
18.04
13.96
5.2
8.52
11.28
8.6
6.04
11.84
14.4
14.28
18.32
17.8
10.88
-4.48
-16.16
-13.28
2.48
6.44
1.44
-5.12
-8.44
-7.48
-3.52
-10.68
-19.68
-24.24
-18.32
-12.28
-20.4
-31.84
-33.8
-32.92
-24.08
-15.64
-12.24
-13.6
-16.64
-21.52
-27.28
-25.16
-20.8
-20.16
-22.64
-28.08
-39.88
-46.08
-36.8
-26.72
-24.24
-32.08
-39.36
-26.44
1.92
44.88
95.56
152.84
219.04
284.56
329.48
328.2
282.16
214.72
149.04
102.88
84.68
69
36.24
5.76
-0.48
6.04
1.64
-11.04
-22.92
-28.84
-31.28
-21.6
-10.08
-6.24
-13.4
-18.16
-19.56
-14.92
-14.36
-18.28
-24.64
-29.96
-31.88
-36.04
-31.84
-29.12
-26.48
-23.6
-18
-16.24
-21.4
-23.32
-21.28
-17.32
-17.92
-24.52
-36.08
-48.28
-49.68
-38.44
-25.36
-15.48
-11.2
-7.76
-11.4
-10.56
-20.04
-36.84
-47.64
-38.8
-20.48
-16.36
-18.56
-17
-16.24
-16.92
-18.68
-18.92
-20.96
-33
-36.12
-22.48
-6.32
-9.24
-24.44
-24.24
-15.44
-9.6
-6.92
-14.24
-21.2
-22.28
-15.6
-7.08
-7.6
-17.72
-20.44
-15.8
-12.52
-11.92
-6.16
-0.12
4.68
8.4
7.04
7.84
12.48
18
18.8
19.52
16.56
8.28
6.92
17.8
23.28
25.76
35.76
49.44
52.08
43.16
35.76
34.04
42
50.72
50.96
42.28
36.84
39.12
40.2
41.96
39.96
33.08
24.48
20.6
23
22.68
9.88
-12.12
-16.8
-5.52
-1.52
-2
-5.28
-8.72
-11.32
-12.8
-9.72
-2.44
-9.64
-24.8
-31.84
-26.4
-17.96
-22.8
-33.96
-33.32
-22.92
-16.76
-16.8
-19.44
-16.36
-13.36
-8.8
-23.92
-42.48
-43.88
-38
-33.12
-29.04
-24.36
-24
-28.6
-26.36
-14.48
-7.24
-9.6
-16.84
-30.16
-32.88
-29.04
-21.8
-17
-15.24
-17.68
-23
-24.08
-15.88
-8.6
-13.4
-20.84
-14.04
0.08
-0.12
-12.88
-18.08
-20.48
-16.8
-4.24
4.32
6.24
3.56
-2.24
-13.16
-20.12
-13.36
-5.12
-5.4
-11.84
-18.2
-17.12
-7.76
1.72
4.04
-2.12
-15
-24.84
-25
-13.16
1.4
9.92
4.76
-9.56
-18.92
-11.16
2.04
8.36
9.84
0.4
-12.72
-19.6
-11.56
-0.4
5
-1.12
-20.48
-27.88
-19.56
-0.08
13.04
12.44
4.08
10.48
14.2
12.56
0.64
-9.12
-8.8
2.08
8.04
20.12
26.52
33.8
32.72
27.92
22.28
15.8
14.76
27.08
30.08
27.4
9.68
-2.52
2.6
15.6
17.96
16.48
12.88
4.08
-3.24
-12.56
-13.72
-6.76
1.08
-3.6
-11.08
-17.96
-19.72
-8.68
-1.12
-7.28
-15.76
-17.4
-12.52
-1
15.72
16.6
-3.72
-29.16
-33
-5.6
18.64
13.72
-3.72
-17.16
-21.48
-15.6
-4.76
11.08
30.8
67.28
122.24
190.28
261.08
320.88
348.92
333.88
275.48
205.36
141.12
90.84
75.96
74.2
57
24.88
8.16
1.04
-10.8
-18.6
-19.12
-16.16
-22.56
-32.76
-31.64
-28.36
-28.2
-29.88
-27
-24.6
-23.16
-26.2
-35.24
-44.4
-50.08
-43.64
-29.52
-26
-28.48
-26.64
-19.28
-21.8
-30.08
-46.6
-56.08
-54.96
-46.48
-43.6
-35.68
-36.44
-39.48
-35.04
-33.24
-34.04
-35.56
-44.36
-45.6
-39.8
-23.08
-11.12
-15
-38.8
-52.2
-49.72
-38.32
-34.64
-31.96
-30.72
-26.32
-24.6
-22.88
-18.76
-12.04
-18.48
-30.36
-43.12
-47.76
-44.52
-36.24
-28.64
-26.6
-26.56
-24.64
-18.84
-7.08
-4.28
-9.2
-13.28
-13.48
-18.08
-20.32
-23.36
-22.6
-13.2
-4.92
-0.48
-1.52
2.04
5.56
7.16
4.28
-5.44
-9.04
4.04
10.76
19.12
32.4
39.88
37.68
28.44
21.44
29.56
40.4
41.76
42.44
41.44
38.52
38.6
44.52
42.32
35.16
30.76
34.6
45.6
45.4
35.12
22.24
19.36
17.4
15.16
16.6
9.88
3.88
-2.4
-4
-5.88
-2.96
-1.16
-5.52
-12.84
-14.28
-14.36
-19.2
-20.72
-18.8
-15.4
-17
-23.84
-25.68
-22.68
-17.84
-20.56
-25.24
-24.92
-24.24
-19.88
-18.44
-24.12
-34.36
-33.16
-30.96
-26.28
-22.8
-17.96
-19.4
-21.32
-20.16
-9.48
-5.04
-7.56
-14.96
-13.68
-10.84
-17.32
-25.92
-34.2
-29.24
-16.4
3.04
8.64
-1.72
-17
-24.56
-14.52
-4.64
-1.6
-0.52
-0.56
5.88
11.68
6.92
-6.32
-14.4
-8.6
6.72
19.28
9.52
-5.8
-6.44
1.48
6.24
9.92
12.36
9.2
4.08
3.36
3.12
9.68
9.6
4.96
4.28
-0.8
0.8
2.64
1.2
-5.28
-9.24
-2.68
7.16
11.2
3.8
-5.48
-13.24
-18.2
-22.32
-20.12
-18.08
-13.04
-2.84
11.12
21.44
21.56
17
13.12
13.8
5.44
-3.44
-0.92
3.04
1.64
-1.32
5.32
19.6
40
48.16
41.44
36.36
30.48
19.36
7.04
-0.76
-6.2
-12.04
-8.08
0.48
13.96
11.92
-0.88
-8.64
-8.36
-4.4
-3.24
-5.2
-10.6
-12.36
-17.56
-26.04
-29.08
-26.64
-19.12
-10.92
-11.68
-13.44
-13.4
-13.44
-11.96
-16.8
-23.32
-26.12
-29
-26.32
-25.28
-27.96
-30.64
-33.4
-30.52
-26.88
-20.56
-3.36
34.2
91
153.96
221.84
284.4
330.6
336.76
294.2
219.52
144.72
84.72
42.68
31.92
21.76
11
1.84
-2.8
-7.8
-17.52
-30.64
-36.64
-33.4
-25.2
-20.76
-26.96
-28.04
-27.2
-22.68
-26.72
-33.92
-34.6
-37.68
-42.48
-47.6
-49.48
-45.44
-42.28
-36.76
-29.8
-23
-26.72
-31.2
-39.08
-46.24
-48.08
-43.24
-44.76
-47.72
-47.6
-43.68
-39.64
-37.64
-34.48
-36.52
-44.16
-52.76
-46.68
-28.92
-17
-22.04
-34.96
-40.56
-41.64
-41.28
-38.44
-40.52
-33.72
-29.28
-24.6
-19.16
-16.6
-21.96
-32.72
-44.12
-45.4
-33.44
-29.12
-29.36
-29.16
-25.08
-18.52
-16
-16.12
-17.8
-21.56
-21
-16.28
-8.84
-7.48
-7.76
-9.96
-11.32
-7.84
-3.8
-1.12
6.48
17.28
27.44
31.68
29.32
23.36
20.04
23.48
25.28
27.68
35.2
35.64
35.56
35.04
39.48
47.6
50.32
47.72
42.88
39.2
36.4
37.08
30.64
24.6
16.36
15.52
16.72
16.72
14.24
13.24
10.6
11.08
5.16
0.08
-1.76
-3.28
-9.2
-16.08
-22.44
-22.04
-18.24
-15.16
-13.96
-10.04
-4.88
-1.76
-8.28
-12.64
-16.48
-18.96
-18.92
-17.6
-18.88
-20.16
-19.52
-16.04
-11
-6.92
-7.8
-9.72
-9.16
-8.64
-13.4
-19.8
-23.16
-25
-24.28
-25.32
-23.4
-18.04
-14.16
-11.2
-5.16
-2.92
-1.4
-5.16
-8.92
-13.24
-17.36
-20.2
-22.72
-21.08
-17.4
-12.08
-6.12
-3.88
-2.16
0.6
2.48
1.28
-0.64
-0.32
-3.6
-3.12
-3.56
-6.04
-11.56
-10.76
-11.52
-6.84
-1.52
1.76
4.36
5.12
4.12
2.04
1.28
-3.6
-7.04
-10.36
-10.88
-9.6
-4.52
3.12
0.68
-2.12
0.08
-0.2
-1.48
-4.64
-7.52
-5.44
-4.88
-10.48
-8.12
-9.72
-7.48
-4.88
0.4
4.12
2.96
5.6
5.72
4.64
-0.32
-0.44
3.08
7.56
11.92
15.48
22.68
31
33.96
33.96
31.8
29.08
29.32
25.08
26.84
22.84
17.48
7.08
0.4
5.08
11.52
13.12
13.4
10.6
7.36
2.2
-1.84
-3
-6.68
-11.48
-13.92
-17.36
-15.16
-15.32
-12.68
-12.88
-11.68
-9.56
-8.84
-8.8
-12.32
-16.24
-18.88
-16.8
-17.48
-18.92
-20.56
-22.72
-19.84
-19.6
-21.16
-17.8
-10.12
-0.08
31.32
73.48
125.92
187.04
253.68
311.24
335.52
310.2
246.08
176.72
109.32
56.72
37.24
39.96
34.4
20.88
12.2
4.24
-1.44
-6
-10.84
-18.2
-24.6
-27
-24.6
-18.32
-12.04
-16.52
-21.96
-24.32
-28.96
-33.24
-33.12
-32.76
-34.44
-32.84
-34.36
-35.68
-28.32
-22.92
-24.88
-26.36
-27.8
-31.12
-29.6
-31.84
-35.72
-39.4
-42.28
-40.72
-36.24
-30.4
-26.08
-25.72
-27.52
-25.96
-26.52
-27.96
-31.52
-33.64
-36.44
-36.32
-37.36
-34.88
-31.48
-29.52
-26.96
-24.72
-24.48
-24.16
-24.84
-25.48
-26.08
-31.56
-32.72
-34.68
-33.48
-31.76
-29.2
-23.32
-20.92
-16.6
-16.24
-18.72
-19.36
-15.92
-17.56
-17.92
-20.92
-21.72
-21.56
-15.84
-11.48
-6.32
-4.64
-3.12
2.4
3.92
10.24
10.8
8.2
3.92
1.96
7
11.08
13.92
18.44
19.88
25.4
32.68
37.2
38.8
36.16
35.6
33.96
35.72
34.88
32
30.36
28.12
28.44
31.44
32.96
33.4
26.6
21.84
13.48
4.6
4.4
-0.92
-5.52
-7.2
-9.04
-4.56
-3.68
-1.32
-1.32
-2.8
-6.68
-7.44
-11.72
-14.32
-16.88
-19.12
-19.72
-20.68
-14.8
-11.2
-11.16
-11.72
-8.72
-9.32
-8.4
-10.28
-16.64
-21.28
-22.92
-23.36
-20.96
-19.88
-20.88
-17.36
-13.24
-9
-2
-2.6
-4.72
-12.56
-15.04
-13.8
-14.64
-13.84
-16.28
-18.16
-17.2
-12.92
-5.8
-3.56
-2.72
-5.2
-5.96
-2.6
-4.92
-8.96
-8.72
-8.28
-4.92
-0.44
4.48
3.68
5.24
3.6
2.8
2.84
1.12
0.36
-3.12
-6.44
-10.28
-5.24
-3.24
0.96
0.72
1.64
1.96
1.88
4.88
1.88
0.44
-4.36
-7.04
-8.68
-9.88
-6.08
-4.04
-2.68
2.96
4.88
5.84
3.6
0.68
-3.4
-8.04
-9
-9.72
-11.52
-9.72
-10.92
-8.96
-3.68
1.96
7.04
8.96
6.72
4
5.84
5.12
7.4
7.88
10.2
10.04
19.92
29.92
35.4
33.32
30.32
28.48
30.32
32.6
28.4
23.76
15.16
10.8
8
6.8
7.6
8.76
7.16
6.24
7.28
9.52
5.52
0.8
-5.36
-10.16
-11.8
-13.12
-18.64
-18.72
-21.88
-20.76
-15.48
-10.44
-11.2
-11.84
-12.64
-14.28
-15.64
-16.48
-21.16
-24.12
-24.32
-24.4
-19.8
-16.76
-19.2
-19.84
-18.32
-12.88
-0.92
26.56
72.44
126.6
186
252.92
309.72
320.72
276.4
204.6
134.24
72.6
33.8
25.08
22.96
11.56
5.56
1.56
-4.36
-7.8
-19.16
-30.88
-33.44
-33.36
-31.76
-27.76
-25.64
-25.32
-27.44
-29.8
-33.92
-35.92
-40.92
-44.52
-44.8
-44.44
-41
-38.08
-37.64
-34.52
-32.32
-33.92
-31.4
-32.76
-34.92
-36.88
-40.84
-43.48
-44.92
-40.6
-41.28
-40.16
-37.72
-34.8
-30.8
-30.56
-33.12
-33.4
-37.8
-42.84
-41.28
-41.12
-42.4
-39.8
-41.2
-39.2
-35.92
-31.96
-29.76
-32.2
-32.72
-36.96
-32.56
-31.52
-28.76
-32.4
-39.68
-43.88
-38.16
-29.12
-21.76
-18.68
-18.44
-20.64
-15.32
-10.68
-8.44
-12.24
-18.2
-20.6
-15.92
-9.28
-3.48
1.64
3.04
7.92
10
15.68
15
17.92
20.32
20.88
20.72
18.2
17.64
20.4
20.84
23.04
23.72
22.2
17.84
20.28
23.28
22.72
22.96
22.64
17.2
10.84
5.92
3.52
2.04
2.28
-0.08
-6.24
-3.08
-8.32
-11.36
-9
-7.56
-9.8
-12.88
-18.04
-15.72
-13.04
-13.24
-13.6
-10.76
-12.16
-13.28
-15.68
-16.68
-14.16
-12.68
-9.12
-11.48
-13.8
-17.4
-19.6
-17.88
-15.24
-10.56
-8.2
-9.48
-10.96
-14.08
-14.44
-9.96
-4.6
-3
-6.28
-13.88
-13.96
-9.52
-5.04
-4.48
-7.04
-13.32
-13.72
-9.84
-7.4
-8.08
-4.68
-6.08
-6.28
-6.84
-7.92
-5.32
-5.8
-8.56
-9.12
-5.52
-4
-1.76
-1.24
-1.88
-1.24
5.72
11.2
10.88
7.32
7.04
3.36
-1.6
1.24
2.28
-1.56
-2.6
-2.72
0.32
-0.28
4.56
8.92
8.32
6.28
2.72
3.76
2.52
1.4
-2.68
-8.56
-3.72
-0.08
1.8
5.16
6
5.48
9
10.96
12.52
7.72
4.44
4.48
7.48
11.76
14.96
20.68
27.48
30.8
38.68
46.28
48
43.44
36
34.24
31.88
28
22.08
17.16
15.32
16.2
20.08
20.28
22.16
18.76
17.56
14.2
7.6
4.76
0.44
-2.32
-8.08
-14.12
-11.96
-6.36
1.8
0.2
-3.76
-9.04
-8.6
-7.08
-7.4
-12.04
-15.24
-14.92
-13.76
-11.88
-11.56
-11.84
-14.6
-21.16
-17.24
-12.48
-4.84
18.04
53
98.44
161.16
222.4
281.52
312.56
293.84
231.8
161.2
107.76
67.76
42.52
28.28
11.4
5.28
1.6
1.32
-6.44
-18.48
-25.2
-25.88
-23.08
-21.84
-20.4
-23.56
-23.92
-24.08
-23.96
-24.12
-28.88
-35.2
-36.2
-36.12
-35.04
-33.8
-32.12
-32.8
-28.4
-26.76
-23.28
-24.36
-26.08
-26.24
-30.08
-34.32
-34.44
-33.6
-30.6
-31.44
-35.52
-37.28
-32.76
-30.24
-28.88
-31
-31.8
-31.12
-31.16
-29.4
-31.76
-37.16
-41.28
-42.28
-35.56
-28.08
-25.16
-26.44
-28
-26.4
-24.36
-26.48
-29.24
-30.36
-36.68
-37.28
-31.28
-28.2
-24.2
-24.52
-21.28
-17.56
-14.16
-10.56
-10.52
-10.4
-7.16
-4.44
-6.88
-11.24
-12.08
-6.8
1.24
7.6
14.72
15.64
19.28
17.88
19.72
21.92
24.04
25.72
23.64
24.56
24.68
25.68
31.76
34.4
36.28
32.64
27.44
24.48
25.24
24.96
22.32
20.08
16.4
13.72
7
1.56
0.92
3.76
5.92
2.4
-1.76
-7.36
-14.24
-15.2
-16.72
-16
-17.64
-18.16
-13.44
-13.72
-15.16
-18.16
-17.2
-13.56
-11.44
-13.92
-15.88
-14.16
-11.76
-12.92
-14.56
-19.2
-19.56
-19.08
-13.68
-12.68
-13.72
-12.92
-17.96
-15.68
-16.88
-19.48
-17.2
-16.28
-17.76
-18.48
-20.28
-17.76
-13.2
-9
-11.2
-12.76
-15
-14.64
-16.8
-19.4
-18.24
-18.28
-13.84
-13.56
-13.24
-11.6
-12.08
-10.28
-10.8
-11.36
-12.48
-14.72
-16.04
-12.2
-5.28
-2.76
-1.88
-0.16
-2.48
-0.64
0.16
1.8
2
-1.2
-5.4
-12.36
-14.6
-14.16
-10.44
-9.88
-8.08
-6.88
-6.56
-7.92
-5.28
-8.76
-12.52
-12.96
-15.4
-15.52
-16.8
-16.36
-13.68
-11.4
-7.72
-1.6
-1.36
-0.68
-6.8
-6.36
-8.16
-9.76
-10.12
-13.2
-13.36
-6.8
1.92
8.32
19.32
25.68
28.16
28.84
30.72
26
19.28
13.96
7.76
6.56
10.36
10.88
9.88
9.64
8.68
8.64
5.96
7.56
0.84
-7.52
-14.04
-17.36
-17.72
-18.84
-20.12
-22.68
-21.84
-18.2
-13.56
-14.28
-15.36
-18.28
-21.92
-19.72
-20.52
-22.92
-27.32
-30.2
-29.2
-28.52
-24.72
-22.96
-24.4
-27.08
-28.08
-22.16
-0.72
40.72
92.16
156.96
228.8
289.8
314.6
276.16
200.88
128.8
72.6
37.24
29.36
20.2
14.36
6.56
-0.72
-6.68
-11.84
-19.96
-27.32
-30.96
-34.24
-30.24
-26.64
-24.24
-29.44
-31
-32.68
-34.28
-29.52
-29.76
-33.08
-37.36
-40.92
-37.72
-33.12
-32.04
-31.28
-30.92
-32.04
-28.8
-26.64
-27.32
-30.44
-36.44
-39.56
-38.08
-36.68
-32.32
-27.76
-27.76
-30.04
-31.08
-24.28
-24.2
-24.72
-26.24
-27.36
-26.52
-31
-35.72
-36.32
-33.76
-31.08
-29.4
-23.36
-19.84
-19.12
-22.84
-24.24
-21.6
-23.64
-23.96
-26.6
-31.84
-30.88
-29.32
-24.04
-19.92
-15.68
-14.76
-15.52
-15.04
-11.84
-8.36
-8.08
-10.92
-13.48
-12.76
-7.76
-0.96
4.56
8.6
6.88
10.68
14.24
17.52
21.88
22.08
19.88
19.28
20.92
21.12
20.64
23.12
23.84
30
36.04
40.72
45.56
45.24
39.08
36.32
38.32
39.12
34.48
26.52
17.72
14.16
11.36
9.2
7.48
8.2
9.76
11.2
6.6
5.44
4.56
-4.16
-12.44
-17.36
-20.8
-18.68
-23.04
-25.04
-21.84
-11
-6.28
-2.96
-6.24
-10.84
-16.2
-22.16
-25.96
-32.04
-31.2
-31.12
-27.84
-21.12
-11.12
-13.24
-17.48
-24
-22.44
-15
-8.4
-7.56
-10.16
-18.4
-27.96
-33.48
-26.96
-22.56
-17.04
-16.4
-14.16
-2.56
2.92
0.28
-2.4
-11.36
-20.36
-24.32
-19.92
-14.84
-8.84
-6.96
-9.56
-10.52
-7.64
-1.64
12.24
20.84
16.2
7.16
1.16
0.48
4.52
6.08
-0.6
-6.52
-4.6
2.08
8.72
15.44
10.92
8.08
8.88
12.2
10.76
7.92
4.84
4.2
1.16
-1.84
-6.88
-3.08
4.68
11.88
14.44
12.4
9.6
6.12
1.2
2.96
0.84
-4.4
-4.88
-5.52
-5.32
3.48
10.04
16.96
14.28
10.16
8.48
11.8
13.32
18.8
16.76
6.6
2.36
9.88
26.2
40.4
46.48
46.52
47.68
46.08
41.12
42.96
42.72
29.44
12.28
7.16
14.96
27.48
28.16
22.64
16
15.32
24.88
29.44
20.28
6.72
1.04
-2.64
-6.72
-12.6
-16.48
-15.68
-16.96
-10.68
8.48
18.44
18
3.72
-7.28
-15.56
-26
-21.48
-12.48
-7.16
-12.72
-18.52
-11.8
-5.28
-6.92
-14.76
-21.08
-23.36
-5.6
35
88.6
141.4
197.68
270.8
331.8
339.08
286.2
218.88
156.08
91
48.4
36.32
33.28
21.04
10.64
5.28
-4.72
-18.76
-25.92
-26.56
-14.76
-9.32
-6.24
0.68
-3.08
-19.04
-37.12
-35.68
-30.16
-28.44
-32.36
-34.24
-31.64
-28.68
-26.12
-24.8
-23.88
-22.84
-23.56
-30.36
-34.72
-32.6
-14.16
-12.4
-28.92
-44.68
-55.04
-47.16
-31.36
-24.32
-33.4
-36.56
-36.44
-29.2
-21.56
-28.4
-48.76
-60.2
-58.96
-51.96
-40.04
-29.16
-28.32
-39.28
-52.68
-53.48
-40.16
-26.72
-25.04
-33.04
-37.76
-35.44
-27.12
-31.2
-44.4
-50.8
-46.32
-46.32
-44.52
-43.28
-36.32
-29.52
-22.04
-12.44
-8.48
-14
-18.32
-20.16
-19.44
-17.88
-16.24
-14.92
-18.88
-28.4
-29.76
-23.32
-2.68
17.32
24.52
28.96
26.28
16.48
2.36
-10.04
-16.32
-13.92
-6.04
8.48
19.12
23.52
18
16.8
25.92
33.6
33
32.12
26.28
18
11.6
2.96
0.08
0.16
3.68
14.28
17.76
2.84
-10.28
-20.44
-15.36
-14.68
-15.04
-15.24
-17.24
-17.32
-19.68
-27.2
-38.68
-39.96
-39.44
-31.96
-25.64
-20.96
-20.28
-25.6
-29.36
-32.76
-28.44
-19.8
-12.84
-0.88
2.88
2.96
-3.72
-16.72
-27.56
-31.84
-27.24
-26.56
-30.28
-36.64
-37.68
-36.96
-34.44
-32.96
-31.28
-31.92
-32.08
-33.32
-35.44
-41.48
-46.48
-39.4
-29.32
-25.92
-28.8
-24.8
-12.4
-4.4
-4.24
-13.28
-18.72
-22.12
-24.68
-23.24
-17.96
-12.08
-7.56
-11.84
-8.96
-4.96
-2.52
-4.28
-8.6
-15.12
-17.56
-19.44
-24.52
-26.24
-25.36
-22.92
-18.6
-10.96
-4.76
6.32
12.72
10
1.48
-10.88
-13.16
-11.72
-11.48
-13.08
-16.68
-15.6
-10.12
-1.36
-0.12
1.92
-4.88
-9.68
-8.4
-6.28
-3.96
-4.36
-8.16
-5.64
-5.12
-1.92
0.24
5.6
8.44
6.4
12.92
11.64
7.96
-3.6
-10.96
-16.6
-14.04
-6.88
-0.2
10.44
23.32
34.36
39.12
35.44
28.32
29.04
22.88
17.92
12.8
10.08
11.72
10.28
9.44
10.08
11.4
11.28
10.28
6.64
2.56
-0.8
-0.96
1.04
-6.72
-15.72
-22.56
-20.96
-11
-7.44
-8.08
-7.2
-13.28
-14
-7.36
-6.24
-7.4
-12.16
-14.08
-13.24
-14.64
-14.8
-14.92
-13.76
-15.6
-15.04
-11.52
-4.4
16.16
54.76
102
164.52
234.28
305
340.08
321.44
256.44
186.56
125.6
84.72
65.92
62.6
50
35.44
33.68
26.72
17.88
8.32
-0.96
-6.04
-9
-10
-11.96
-15.76
-23.64
-26.16
-22.24
-15.2
-15.4
-22.28
-28.88
-30.96
-29.88
-29.88
-27.84
-29.96
-30.04
-27.04
-19.84
-19.16
-20
-27.48
-29.44
-28.4
-30.36
-33.72
-34.88
-31.96
-28.68
-29.84
-26.24
-23.56
-21.48
-25.72
-30.56
-31.2
-28.28
-23.28
-26
-32.08
-39.92
-45.12
-42.28
-35.28
-30.48
-28.72
-26.8
-23.16
-17.6
-18.16
-27.24
-30.48
-36.16
-37.28
-32.2
-29.56
-25.92
-24.76
-21.76
-18.32
-15.52
-15.96
-17.6
-16.36
-18.84
-17.32
-16.96
-23.84
-23.72
-21.12
-9.52
1.64
5.68
8.36
9.36
8.4
9.2
7.44
7.72
9.92
13.52
12
9.32
12
20.6
30.76
33.84
29.76
29.84
36
38.48
42.6
38.12
33.6
31.64
31.4
29.52
31.16
31.6
31.92
31.08
28.08
30.16
32
29.8
24.08
20.8
14.88
8.68
3.48
0.08
-2.88
-3.68
-4
0.96
0.48
-3.4
-10.32
-17.56
-21.12
-18.64
-13.52
-14
-18.48
-21.4
-22.04
-18.76
-15.24
-11
-6.92
-5.64
-8.6
-13.96
-17.24
-22.28
-23.48
-23
-20.96
-19.4
-14.88
-12.08
-8.2
-12.92
-15
-14.2
-14.44
-12.4
-16.44
-19.48
-23.72
-20.2
-14.96
-12.36
-11.92
-12.2
-8.52
-7.6
-2.72
-3.64
-7.4
-12.48
-12.04
-8.4
-7.04
-6.4
-5.04
-1.04
3.64
5.52
7.24
5.52
1.72
-2.84
-4.6
-2.28
-4.64
-5.12
-4.8
-3.16
1.12
5.6
11.88
10.44
6.08
3.28
2.16
-0.68
-3.48
-8.96
-13.04
-15.4
-10.36
-1.04
2.28
4.84
6.12
2.6
2
4.16
3.04
0.36
-7.56
-12.08
-11.4
-7.04
-2.92
-1.76
-0.44
-2.88
-2.6
0.88
1.04
4.36
3.12
-0.72
-1.04
-5.76
-4.08
-3.52
-2.24
-2.24
2.96
7.24
13.24
18.64
14.88
10.24
10.84
14.2
15.8
19.36
21.16
28.44
32.64
35.44
35.72
35.4
35.72
33.32
30.6
30
28.84
27.68
22.4
13.76
9.6
9
10.44
9.36
9.52
10.56
8.16
1.24
-2.04
-1.6
-1.8
-5
-10.24
-12.72
-15.8
-18.28
-16.6
-17.44
-17.24
-11.36
-6.6
-4.24
-8.16
-11.6
-12
-12.28
-10.36
-14.76
-20.56
-27
-22.2
-16.16
-14.92
-19.08
-20.24
-9.92
12.92
51.28
94.48
145.32
207.4
274
320.12
321.64
271.28
205.16
142.36
87.16
53.8
47.8
48.36
38.88
20.24
12.04
5.96
2.2
-8.68
-18.88
-27.84
-27.96
-18.12
-7.6
-9.2
-15.08
-24.36
-29.76
-29.36
-26.44
-23.4
-29.12
-34
-33.36
-31.44
-28.56
-26.6
-25.04
-22.76
-23.72
-21
-17.68
-20.28
-26
-33.72
-37.24
-36.32
-30
-27.2
-29.08
-29.8
-26.16
-26.04
-23.2
-22.36
-21.04
-23.32
-27.96
-33.72
-33.44
-28.48
-25.92
-27.12
-30.28
-31.24
-23.68
-18.24
-16.16
-18.24
-22.12
-21.64
-24.48
-28.2
-30.76
-30.72
-32
-27.24
-20.68
-17.68
-15.08
-14.48
-13.28
-12.48
-15.52
-16.32
-15.48
-14.36
-16.12
-18.2
-11.84
-8.08
-0.08
3.2
5.76
8.84
8.48
10.32
6.76
9.28
13.4
16.36
14.44
13.32
12.64
18.64
26
29.52
32.12
34.28
36.12
37.96
38.48
40.96
36
39.04
35
31.08
30.8
35.32
40.88
44.08
41.96
36.8
33.16
30.2
28.68
23.24
12.56
6.96
8.2
8.24
5.04
6.56
10.28
12.76
6.72
2.4
-0.76
-4.84
-6.8
-8.2
-10.24
-17.8
-26.48
-31.72
-30.84
-25.92
-19.8
-14.08
-8.48
-8.88
-10.16
-13.12
-17.72
-21.88
-24.08
-27.64
-31.88
-35.68
-37.4
-36.24
-27.4
-21.12
-17.8
-17
-17.76
-15.52
-15.96
-13.96
-19.28
-26.88
-34.4
-39.68
-38.76
-31.44
-25.24
-21.88
-20.76
-18.48
-13.2
-9.24
-10.12
-16.12
-19.2
-21.96
-19.56
-20.64
-21.36
-21.08
-19.04
-12.92
-10.56
-7.52
-9.16
-11.88
-12.12
-12.16
-14.88
-21.04
-26.96
-28.28
-26.36
-20.08
-16.8
-15.16
-15.64
-11.4
-10.16
-9.96
-10.28
-14.64
-22.2
-27.16
-29.76
-27.52
-20.36
-17.88
-17.64
-17.48
-17.36
-15.64
-14.68
-18.4
-21.08
-27.28
-29.16
-29.76
-29.2
-29.76
-32.64
-32.08
-25.8
-18
-12.32
-16.72
-21.68
-23.68
-21.56
-21.64
-21.12
-22.92
-22.92
-24.84
-28.08
-27.36
-21.84
-18.12
-15.2
-13.12
-16.84
-18.24
-17.08
-12.96
-8.4
-7.28
-6.68
-5.4
2.72
8.4
4.68
-0.72
1.28
14.28
25.56
25.32
17.08
7.32
-3.2
-7.72
-7.84
-3.8
4.12
3.6
-6.24
-13.64
-19.24
-22.04
-22.6
-20.32
-16.8
-16.16
-18.2
-20.92
-23
-24.88
-32.52
-42.48
-48.44
-37.16
-16.2
-2.6
-9.72
-17.44
-19.16
-18.32
-21.52
-29.4
-34.92
-31.44
-23.36
-15.92
-17.08
-25.92
-30.88
-28.36
-17.92
8.44
46.24
96.36
153.84
221.84
284
311.64
286.08
230.44
170.12
113.4
70.92
43.52
38.56
32.28
25.44
21.04
21.08
15.4
0.52
-13.16
-24.04
-26.4
-19.84
-9.44
1
-1.68
-13.88
-23.16
-29.16
-31.36
-28.6
-25.6
-24.16
-18.12
-14.88
-13.16
-15.8
-17.04
-18.16
-8.64
-0.72
4.56
6.04
2
-3.88
-13.76
-21.8
-30.64
-36.68
-34.2
-20.68
-3.36
7.96
3.08
-6.24
-13.12
-11.6
-1.24
6.52
10
13.16
8.08
7.8
0
-6
-10.04
-6.04
10
30.64
48.64
47.16
33.64
7.36
-20.16
-34.92
-29.04
-8.44
14.88
19.12
7.52
-8.32
-20.24
-15.76
10.32
49.96
71.6
48.28
5.92
-27.8
-31.76
2.2
54.6
76.68
58.96
20.96
-2.88
-3.28
4.72
13.32
35.76
70.4
94.2
82.64
46.6
9.44
5.76
46.96
97.44
121.8
113.08
82.8
40.96
13.48
11.48
31.4
52.8
57.52
50.04
37.84
17.6
4.64
11.04
36.88
64.96
66.44
39.96
0.4
-24.6
-21.24
-4.84
8.96
10.12
-4.96
-21.84
-11.92
16.32
34.32
33.88
30.96
21.68
2.12
-27.12
-35
-27.84
-8
11.28
23.36
14.32
-2.2
-16.36
-27.68
-34.2
-17.04
11.92
21.44
-2.8
-28.76
-22.88
7.12
16.48
-3.88
-36.44
-53.4
-47.12
-24.56
-0.6
7.2
3.92
-7.52
-16.64
-19.48
-23.88
-17.16
1.32
12.08
13.76
-6.4
-32.52
-49.24
-53.08
-44.8
-28.88
-8.88
9.88
23.36
11.84
-17.84
-40.2
-35.64
-19.4
-18.24
-20.8
-15.16
-7.96
-1.6
-0.96
3.48
0.68
-14.8
-31.32
-41.36
-39.24
-24.04
-7.28
-1.2
-8.56
-17.64
-21.52
-24.6
-33.44
-41.36
-37.36
-21.72
-3.16
4
-4.6
-26.36
-45.6
-51.68
-42.28
-28.68
-15.36
-3.04
7.44
8.72
-3.48
-20.2
-30.96
-33.92
-31.64
-31.68
-29.8
-19.4
-5.32
6.76
14
14.24
16.8
20.12
22.28
23.92
19.6
12.04
9.32
9.08
6.44
-1.4
-12.52
-14.96
-7.92
0.08
2.12
2.2
-2.16
-7.24
-16.28
-20.32
-23.92
-29.56
-33.44
-34.16
-33.76
-28.68
-26.4
-25.24
-21.08
-16.32
-11.84
-12.8
-20.52
-26.64
-27.32
-28.56
-26.6
-26.68
-28.36
-33.68
-40.16
-44.84
-44.44
-33.52
-15.36
6
38.32
78
132.12
200.16
263.72
298.32
278.8
219.44
151.56
104.68
72.28
55
41.2
14.44
-8.16
-12.08
-7.04
-7.48
-13.8
-15.68
-17.2
-17.76
-14.8
-17.4
-21.72
-28.6
-27.44
-27
-22.92
-25.04
-28.88
-31.88
-32.88
-32.48
-28.12
-23
-22.12
-23.72
-27.4
-26.24
-23.44
-19.36
-11.8
-17.04
-23.88
-26.48
-28.96
-26.16
-25.4
-24.88
-22.36
-18.36
-18.08
-20.76
-23.08
-27.2
-24.4
-19.52
-21.04
-23.56
-30.36
-30.12
-28.04
-22.8
-22.6
-21.12
-22.84
-22.04
-19.64
-17.88
-18.12
-16.52
-18.12
-20.04
-22.6
-21.04
-18.2
-17.64
-18.52
-21.76
-17.8
-10.36
-0.44
1.88
-0.68
-4.12
-6.36
-14.04
-10.96
-7.28
-3.64
2.24
4.68
7.72
13.4
16.8
19.48
21.4
24.32
22.84
21
19.12
15.76
11.84
12.48
18.76
23.6
22.64
19.68
14.8
16.68
25.6
29.76
29.72
24.32
20.52
14.32
10.92
8.16
7.84
6.12
0.8
-7.68
-8.52
-7.08
-3.68
-5.8
-7.76
-11.84
-11.6
-11.72
-15.76
-16.88
-23.68
-26.12
-22.56
-16.16
-12.96
-13.56
-17
-21.16
-19.44
-15.4
-14.04
-15.16
-18.48
-21.12
-24.08
-15.4
-12.64
-14.24
-18.04
-17.96
-14.68
-10.24
-12.52
-13.4
-19.08
-18.36
-16.72
-10.44
-12.2
-15.48
-17.68
-15.24
-12.04
-7.04
-0.72
1.6
-0.76
-5.64
-4.4
-3.56
-8.8
-15.6
-14.56
-12.24
-10.8
-7.76
-6.32
-8.72
-4.56
-2.84
-0.48
-0.04
1
2.36
-0.6
0.84
2.28
4.64
-2.92
-9.2
-11.64
-11.76
-9.88
-5.2
-3.92
0.88
1
0.12
0.88
2
-1.6
-5.24
-11.04
-14.6
-13.56
-9.76
-5.04
-4.08
1.32
2.16
5.2
7.24
4
0.2
-0.12
-2.76
-3.52
-2.28
-0.08
2.8
10.72
17.08
26.28
33.96
38.24
38.56
34.56
27.84
27.32
28.64
21.96
15.2
13.52
10.32
14
17.48
13.92
15.76
13.2
8.4
4.44
4.68
0.2
-7.52
-9.12
-15
-15.64
-12.92
-12.24
-11.68
-10.04
-11.12
-9.68
-7.72
-7.56
-7.12
-12.56
-18.4
-22.36
-19.36
-17.68
-16.64
-20.84
-20.2
-23.84
-25.96
-27.52
-22.36
1.04
41.6
94.12
150.16
219.2
272.48
293.24
265.4
207.08
148.88
100.24
61.24
40.72
19.88
3.08
-4.36
-3.56
-6.24
-13.12
-18.92
-22.36
-25.28
-27.4
-26.52
-26.12
-26.16
-23.84
-21.92
-18.92
-23.28
-27.44
-32.12
-32.28
-31.56
-33.04
-32
-33
-32.24
-27.04
-27.28
-26.8
-26.76
-25.88
-26.24
-28.76
-30.68
-31.8
-34.76
-38.08
-36.12
-32.44
-27
-25.8
-25.88
-27.28
-25.12
-23.48
-22.96
-26.64
-30.24
-34.48
-37.72
-38.32
-34.76
-34.24
-32.64
-30.48
-25.36
-22.8
-23.64
-25.92
-26
-28.64
-29.16
-29.6
-25.76
-26.24
-26.36
-24.68
-22
-18.96
-15.8
-13.88
-12.44
-10.72
-14.12
-11.72
-9.2
-9.6
-13.44
-12.76
-12.08
-6.4
1.08
5.04
8.2
10.36
11.84
16.4
20.08
16.6
15.36
14.76
13.88
17.52
18.2
23.08
23.92
23.92
26.04
29.32
31.16
28.8
25.56
16.6
11.04
2.68
0.92
-1.28
0.84
2.88
5.48
10.88
14.48
10.36
2.84
-2.32
-8.68
-9.44
-11.8
-16.04
-19.4
-24.2
-21.76
-15.6
-10.84
-7.04
-6.2
-7.12
-7.6
-9.96
-12.56
-15.28
-20.52
-27.92
-30.2
-29.16
-22.04
-15.88
-13.04
-12.4
-10.56
-7.52
-1.32
-3.76
-10.24
-17.12
-21.52
-23
-20.52
-20.44
-16.16
-13
-12.2
-3.72
0.92
-2
-1.68
-5.08
-8.48
-8.64
-10.2
-14.72
-19.96
-17.8
-15.4
-6.56
-2
1.2
1.8
2.84
1.44
2.8
3.04
0
-4.16
-8.84
-8.92
-6.08
-2.04
0.28
2.56
1.76
-0.24
2.84
3.44
4.16
-1.84
-5.92
-10.16
-11.2
-7.48
-4.88
-2
-2.92
-1.8
1.16
3.96
3.12
0.76
-1.44
-4.64
-5.92
-5.52
-5.52
-6.72
-5.12
-3.32
-0.56
3.44
5.68
7.4
8.52
5.04
6.8
5.68
3.44
1.04
4.12
10
15.44
26.28
32.24
33.52
33
28.68
26.8
28.28
27.24
22.44
16.24
7.92
7.88
8.72
11.24
9.32
10.2
11.56
13.04
8.72
3.92
-1.48
-7.44
-7.16
-10.56
-11.92
-13.88
-17.6
-18
-14.96
-13.24
-6.84
-3.36
-3.52
-8.2
-9.6
-10.48
-11.36
-13.56
-16.72
-19.68
-22.44
-20.84
-19.76
-23.96
-27.36
-27.76
-22.92
-0.64
38.04
85.4
134.68
192.28
247.32
285.4
281.64
232.44
176.56
126.36
83.96
53.4
41.24
29.64
14.32
4.8
4.04
-2.6
-9.64
-13.6
-19.44
-23.72
-27.56
-23.92
-21.56
-23.16
-22.16
-22.92
-25.44
-26.12
-27.04
-29.56
-30.4
-33.4
-39.28
-34
-27.84
-25.2
-23.76
-24.36
-23.36
-25.24
-23.8
-27.56
-30.32
-31.72
-34.64
-34.8
-31.68
-30.52
-30.12
-30.4
-29.08
-24.84
-22
-21.76
-24
-26.64
-28.6
-28.24
-29.32
-32.32
-33
-30.84
-31.4
-28.76
-22.84
-20.36
-22.44
-23.52
-26.92
-24.92
-26.16
-27.72
-30.76
-32.76
-30.4
-24.36
-16.96
-13.04
-15
-14.24
-14.4
-11.48
-9
-11.88
-13.92
-13.44
-13.28
-11.24
-8.84
-3.68
-1.16
1.84
5.96
11.68
15.4
15.44
15.04
14.36
14.28
13.68
18.6
17.68
20.24
21.44
26.16
32.04
35
32.84
33.72
34.72
36.36
36.64
33.64
29.28
23.32
20.32
17.96
19.6
20.4
16.2
11.68
4.24
2.96
1.88
5.76
3.6
-2.28
-5.88
-10.12
-10.72
-9.64
-10.6
-12.16
-12
-15.28
-15.56
-12.76
-11.6
-14.32
-17.36
-18.32
-15.12
-13.6
-15.12
-18.96
-19.88
-18.56
-15.44
-16.8
-16.08
-19.52
-20.52
-18.24
-17.44
-15.6
-17.36
-18.8
-18.24
-18.24
-16.36
-16
-14.84
-14.96
-16.12
-15.64
-12.92
-12.76
-12.84
-11.96
-9.8
-15.16
-15.68
-13.92
-14.08
-13.68
-11.56
-13.88
-12.36
-12.84
-11.24
-5.2
-5.36
-2.44
-0.04
1.84
-1.16
1.4
-1.72
-4.56
-5.68
-3.88
-2.68
-6.64
-6.52
-6.08
-2.76
0.24
1.48
-1.04
-0.12
-0.8
1.76
-0.4
-1.56
-5.84
-7.68
-10.76
-8.72
-5.56
-1.32
-2.32
-3.08
-1.72
-0.96
-2.04
-1.36
-4.4
-7.52
-8.88
-9.92
-8.16
-8.24
-7
-7.84
-3.84
0.4
4.8
3.48
2.56
-0.68
-1.64
-3.76
-0.16
-3
-3.96
1.08
8.44
18.6
27.56
30.96
33.72
33.44
28.56
30.24
29.12
24.16
19.04
10.36
9.4
10.32
14.48
16.76
15.84
15.48
9.16
4.8
3.04
-1.08
-2.84
-6.68
-10.96
-13.84
-14.84
-13.84
-12.44
-12
-12.96
-11.28
-6.52
-6.72
-7.4
-9.32
-14.04
-15.88
-15.2
-17.92
-20.88
-19.76
-19.24
-15.68
-16.76
-19.88
-19
-15.08
6.32
43.32
90.48
141.8
203.64
259.84
288.92
268.12
212.64
155.36
105.2
63
45.76
40.72
34.72
26.84
19.08
12.32
3.08
-5.12
-13.28
-20.08
-24.32
-23.64
-23.04
-20.36
-19.84
-19.96
-21.84
-23.68
-25.6
-27.36
-28.8
-31
-30.92
-30.68
-32.08
-29.72
-21.12
-21.2
-20.56
-22.76
-23.76
-22.64
-23.76
-26.28
-30.72
-33.92
-33.8
-30.68
-25.08
-24.84
-23.08
-19.2
-21.48
-20.68
-18.72
-19.48
-22.84
-29.36
-32.68
-28.88
-26.88
-25.68
-30.16
-26.92
-25.16
-19.16
-17.72
-15.92
-15.76
-19.68
-23.32
-21.04
-21.68
-23.04
-25.12
-23.92
-20.2
-13.2
-12.32
-10.2
-4.64
-4.8
-5.4
-5.48
-5.12
-3.76
-4.04
-8.2
-6.28
-4
4.68
9.72
12.84
15.12
19.6
22.52
25.84
25.04
24.48
22.84
21.48
22.24
25.04
27.48
31.4
33.56
34.56
37.68
36.16
40.24
38.56
34.88
29.32
25.56
23.16
19
13
11.64
10.72
11.6
14.4
14.68
5.96
2.32
-2.48
-3.88
-6.76
-12.48
-16.6
-19.44
-21
-15.36
-7.76
-3.88
-3.48
-6.72
-6
-5.6
-9.36
-13.4
-20.96
-24.36
-25.28
-21.24
-19.84
-15.2
-12.52
-14.6
-11.12
-7.56
-8.08
-9.8
-12.52
-17.6
-22.2
-23.84
-21.92
-21.88
-18.36
-17.68
-15
-14.24
-7
-8.44
-4.68
-8.44
-11.16
-13.32
-12.08
-14.72
-18.68
-20.76
-20.2
-17.52
-10
-9.28
-6.08
-4.6
-5.72
-9.44
-3.48
-7.08
-10.84
-13.32
-13.6
-8.56
-0.8
0.12
-0.68
-2.44
-2.32
-2.76
-0.56
0.52
-3.76
-8.64
-9.64
-10.32
-7.08
-5.4
-5.84
-4.32
-2.36
1.72
0.76
-1.72
-2.64
-2.56
-5.84
-8.88
-6.16
-9.84
-9.6
-6.96
-8.28
-4.92
-2.4
0.52
-1.2
-1.76
-4.72
-4.92
-6.36
-10.32
-7.64
-7.36
-9.2
-8.84
-2.2
0.28
2.88
1.76
3.08
2.56
4.52
3.4
-1.88
-0.72
2.92
8.96
16.08
23.72
28.72
31.36
30.92
33.84
32.04
29.8
26.88
21
15.84
15.84
11.48
9.68
5.92
5.76
5.72
5.32
5.88
6.04
1.28
-2.84
-4.56
-7.48
-7.68
-12.68
-17.88
-17.4
-16
-12.4
-8.4
-8.84
-12.04
-12.56
-12.28
-10.48
-10.12
-14.92
-16.92
-19.92
-24
-22.6
-19.2
-18.52
-17.28
-20.6
-23.8
-19.44
-12.28
11.56
44.88
85.4
136.4
200.28
255.84
279.08
254.56
197.16
139.2
95.72
64.32
47.64
39.88
29.76
19.72
17.16
10
1.96
-8.48
-20.28
-26.88
-29.44
-25.56
-23.04
-21.32
-21.92
-26.68
-24.04
-26.16
-28.6
-32.76
-36.8
-39.32
-36.04
-32.8
-32.28
-32.36
-30.8
-30.12
-27.96
-24.72
-25.04
-29.08
-29.44
-31.6
-32.76
-35.52
-36.2
-34.8
-31.28
-31.2
-28.8
-25.24
-23.12
-24.68
-28.08
-31.92
-30.28
-27.56
-30.84
-35.48
-37.12
-38.76
-32.44
-29.4
-30.12
-28.32
-26.24
-25.76
-22.28
-24.32
-25.8
-26.76
-29.04
-32.68
-33.52
-27.44
-23.24
-22.2
-18.08
-17.52
-15.72
-14.48
-13.04
-10.84
-12.08
-15
-14.52
-11.16
-11.96
-9.6
-7.36
-6.32
-1.2
7.28
11.36
12.68
12.2
12.56
16.4
18.48
16.04
14.76
13.92
15.28
22.52
27.44
28.6
31.2
30.4
29.8
30.12
28.36
26.32
23.52
18
14.92
15.12
16.36
16.56
13.72
11.92
7.52
7.56
10.96
7.32
4.76
0
-3.64
-5.36
-10.12
-11.96
-13.16
-17.52
-16.4
-15.44
-14.56
-15.32
-15.32
-16.96
-15.68
-14
-13.44
-14.52
-18.88
-24.36
-26.4
-22.96
-19.84
-17.88
-17.76
-22.32
-20.2
-16.76
-13.4
-12.68
-14.04
-16.12
-20.4
-19.96
-19.16
-18.64
-19.36
-21.52
-20.48
-17.04
-13.04
-11.48
-11.2
-14.32
-15.72
-18.04
-15.52
-14.96
-17.04
-17.52
-16.32
-15.76
-15
-14.32
-13.12
-12.56
-8.88
-6.52
-2.72
-2.36
-1.48
-3.84
-6
-7.88
-8.32
-8.6
-10.12
-11.04
-11.08
-7.96
-2.68
-1.48
-0.92
-1.72
-4.04
-7.88
-5.52
-6.6
-9.12
-11.28
-13.8
-12.76
-10
-6.96
-6.72
-6.64
-5.16
-4.12
0.52
-0.24
-2.8
-6
-9.6
-10.92
-11.64
-12.56
-10.76
-9.72
-8.64
-8.56
-4.2
-0.32
1.28
-0.44
-4.04
-4.24
-6.2
-6.6
-11.16
-12.04
-10.32
-5.56
0.28
3.4
4.96
2.84
0.32
2.36
5.56
8.6
11.72
11.2
12.84
18.04
25.72
28.68
27.6
26.84
25.48
28.24
28.72
26.88
20.52
16.84
11.88
8.4
8.96
6.4
5.2
3.44
1.56
3.56
4.16
1.16
-3
-5.76
-8
-9.84
-12.84
-15.28
-18.44
-17.72
-19.88
-12.72
-9.6
-8.28
-8.44
-8.44
-8.48
-9.28
-10.64
-13.12
-17
-20.52
-20.64
-17.12
-14.4
-13.08
-13.08
-16.76
-21.84
-14.04
8.84
40.96
81.68
124.24
175.2
228.36
267.92
266.48
226.28
176.48
130.6
92.8
61.48
47.24
35.12
24.12
13.84
14.24
9.16
3.44
-5.04
-9.6
-15.84
-19.88
-20.72
-20.56
-18.76
-21.88
-27.04
-25.2
-22.72
-25.16
-30.04
-32.76
-37.24
-38
-33.32
-32.28
-27
-31.88
-29.08
-24.32
-21.6
-23.72
-26.12
-29.52
-31.32
-33.24
-32.76
-34.44
-30.6
-29.52
-28.2
-21.36
-21.76
-23
-24.12
-27.96
-28.4
-29.8
-26.64
-29.56
-32.08
-33.68
-33.88
-30.88
-27.6
-22.84
-20.12
-22.36
-25.48
-25.36
-23
-24.44
-23.04
-28.84
-30.44
-30.12
-28.56
-21.68
-19.24
-15.4
-13.72
-12.08
-11.52
-10.8
-12.44
-13.08
-15.8
-15.72
-13.36
-11.88
-8.2
-6.24
-2.72
0.16
4.8
9.48
10.28
8.12
7.64
6.92
11.04
10.16
6.72
8.36
10.28
16.28
21.72
25.44
27.28
26.24
27.2
30.96
31.4
27.76
23.96
21.36
14.68
15.24
18.12
19.28
19
17.8
18.72
21.48
20.12
16.04
8.72
2.48
1.04
-0.32
-0.76
-4.04
-3.84
-6.84
-6.96
-0.8
-0.64
-5.68
-11.12
-16.44
-21.48
-19
-20.2
-18.6
-18
-18.64
-15.08
-10.6
-7.52
-9.92
-11.28
-13.48
-17.96
-20.2
-20.16
-25.4
-26.24
-25.4
-24.76
-18.48
-13.08
-13.44
-9.08
-9.44
-11.88
-12.04
-13.56
-13.8
-18.72
-22.88
-24.76
-21.16
-18.56
-17.12
-12.6
-9.96
-12.56
-13.2
-9
-8.88
-12.52
-11.44
-13.64
-14.04
-10.92
-11.08
-6.8
-2.36
-1.4
2.12
1.52
2.24
-0.84
-5.24
-8.32
-10.72
-8.44
-8.84
-9.72
-6
-3.84
-1.72
1.92
2.28
1.56
1.28
-0.88
-0.52
-1.96
-3.32
-6.76
-7.12
-9.08
-4.32
-0.4
2.56
2.2
1.56
0
1.4
4.2
1.64
0.24
-7.12
-9.6
-10.08
-7.16
-4.52
-1.56
-1.68
0.04
0.28
2.44
2.92
0.52
-2
-3.44
-7
-4.6
-3.2
-6.08
-5.48
-1.52
1.12
6.68
10.92
10.32
5.8
4.4
3.68
7
11.48
14.04
20.68
24.88
29.32
31.28
30
29.72
29.32
25.88
21.48
21
18.6
15.08
9.64
3.32
5
9.24
11
9.12
6
1.88
0.56
2.08
2.6
-0.68
-5.84
-10.2
-11.6
-12.88
-12.2
-11.72
-14.88
-9.88
-6.96
-4
-4.16
-6.48
-8.8
-12.04
-11.24
-7.68
-11
-13.08
-17.44
-18.88
-21.16
-22.44
-19.56
-19.48
-13.52
4.96
41.56
81.2
127
177.44
230
266.8
272.48
240.88
192.52
145.16
102.92
68.08
52.84
44.12
31.88
17.6
16.28
10.68
4.16
-0.24
-6.36
-14
-18.28
-19.56
-15.92
-13.88
-12.12
-17.68
-20.96
-22.32
-25.68
-27.48
-29.88
-32.16
-34.36
-32.88
-26.2
-22.52
-21.84
-21.68
-21.96
-24.32
-24.76
-24.36
-25.76
-27.52
-29.76
-32.12
-31.32
-25.96
-23.96
-23.24
-23.64
-24.44
-22.68
-20.32
-20.84
-23.36
-26.6
-30.36
-30.44
-27.92
-25.16
-25.76
-23.76
-25.96
-21.32
-19.16
-20.32
-20.08
-23.52
-23.08
-22.44
-21.32
-21.44
-25.76
-27.04
-25.64
-24.52
-19.92
-15.44
-10.4
-10.68
-11.52
-12.2
-11.84
-11.28
-12.04
-14.96
-16.24
-14.48
-9.32
-3.04
-0.28
1.28
3.4
6.24
12.32
13.8
15.36
11.12
8.48
8.48
11.08
15
17.36
20.76
21.72
27.12
31.16
33
28.16
29.92
29.6
30.32
30.48
28.44
27.28
22.4
25.68
28.96
31
30.36
28.56
25.56
21.76
19.36
20.2
12.2
6.8
4.92
0.96
1.92
1.16
-2.88
-2.48
-6.24
-8.52
-11.68
-10.32
-7.92
-8.84
-9.8
-13.4
-16.04
-16.4
-14.24
-12.6
-11.24
-9.64
-10.6
-12.92
-14.04
-15.24
-17.44
-17.16
-17.12
-14.92
-12.48
-15.84
-15.52
-17.96
-13.72
-11.04
-10.92
-13.28
-18.44
-16.56
-17.8
-14.6
-11.48
-10.08
-10.68
-14
-18.88
-13.4
-9.4
-5.8
-7.64
-12
-13.08
-9.52
-6.36
-5.48
-3.36
-3.64
-2.08
2
2.2
2.24
1.4
-1.84
-4.56
-3.28
-3
-5.88
-7.08
-4.72
-1.52
3
2.32
3.28
2.28
-1.92
-1.16
-1.64
-1.36
-4.04
-7.72
-10.64
-7.04
-1.8
3.2
4.88
5.24
6.2
4.08
4.72
-0.4
-0.76
-2.56
-4.44
-7.32
-5.48
-3.8
0.56
0.6
0.24
0.48
3.24
4.04
3.8
0.68
-0.72
-2.8
-4.96
-5.84
-3.92
-3.24
-1.92
0.92
4.44
6.68
7.52
8.44
5.08
3
6.36
7.36
10.08
11.2
12.2
19.8
23.24
30.28
29.92
27.32
25.2
24.2
25.88
23.76
20.32
16.6
10.6
4.64
4.6
4.28
6
3.24
3.12
1.52
4.32
0.36
-3.8
-6.6
-11.88
-12.6
-12.6
-14.52
-14.28
-18.44
-19.6
-16.52
-8.64
-7.2
-8.16
-10.76
-13.92
-12.76
-14.16
-14.76
-16.56
-18.44
-20.28
-18.44
-19.6
-22.48
-25.44
-20.96
-20.92
-9.64
18.2
53.32
92.84
140.2
198.2
249.24
266.08
243.84
191.72
142.68
98.8
66.32
47.12
44.32
36.04
25.08
14.68
11.84
4.72
-0.32
-10.44
-17.4
-21.52
-22.6
-17.76
-17.32
-16.56
-19.16
-19.4
-22.36
-22.72
-26.64
-26.68
-28.72
-33.8
-33.04
-30.2
-27.24
-24.24
-22.68
-23.96
-22.68
-25.2
-24.04
-26.28
-29.04
-33
-32.28
-31.28
-27.64
-25.76
-25.64
-28.52
-26
-22.48
-18.52
-16.76
-21.4
-25.4
-25.24
-30.36
-32.72
-30.48
-31.92
-29.28
-28.2
-24.12
-20.64
-20.04
-21.08
-25.28
-21.92
-20.04
-20.88
-24.08
-26.4
-31.36
-28.2
-22.92
-17
-17.8
-17.32
-17.56
-16.64
-13.96
-12.72
-14.6
-16.16
-15.32
-13.68
-10.76
-11.44
-9.88
-7.72
-3.36
1.16
6
9
8.92
8.04
7.12
9.68
11.4
10.04
10.04
11.52
14.36
20.32
24.64
28.08
31.12
31.16
31.08
29.04
30.08
28.76
29.56
25.24
23.32
23.84
25.76
25.84
29.36
29.04
26.04
22.84
19.6
17.08
12.64
4.56
-3.84
-7.08
-7.48
-6.36
-6.12
-3.72
-3.68
-2.16
1.04
2.12
0.44
-5.92
-11.24
-15.2
-19.52
-22.68
-23.76
-22.32
-16.88
-10.76
-6.92
-3.52
-4.2
-9.12
-9.8
-10.32
-10.92
-13.8
-21
-25.08
-28.04
-22.84
-16.64
-10.48
-7.36
-5.88
-4.64
-6.6
-6.56
-7.04
-7.68
-12.4
-15.48
-21.6
-17.76
-14.56
-8.52
-6.64
-7.48
-5.92
-1.84
1.56
2.8
-1.08
-4.04
-4
-4.68
-6.72
-5.12
-7.64
-6.84
-5
1.16
2.32
3.68
0.96
-0.12
-1.36
-2.8
-3
-8.84
-10.92
-12.6
-6.56
-4.16
-3.56
-2.16
-0.88
-2.36
0.56
3.32
1.84
-0.6
-5.92
-11.68
-11.8
-11.68
-8.76
-5.6
-4.96
-3.4
-1.36
0.92
3.76
0.4
-2.92
-7.4
-8.88
-10.88
-11
-13.88
-8.8
-2.64
-0.16
1.08
3
4.52
4.52
3.48
1.92
1.24
-1.08
1.88
0.96
3.32
12.32
23.32
29.8
32.28
31.52
28.2
28.16
27
30.72
24.2
18
14.12
11.28
11.44
11.36
9.44
8.28
6.64
5.84
4.4
0.52
-4.44
-6.48
-6.16
-10.36
-9.2
-11.88
-11.64
-13.64
-16.52
-11.56
-10.2
-8.08
-10.44
-10.12
-9.96
-9
-9.84
-13.84
-17.52
-19.08
-18.8
-18.8
-19.68
-19.72
-20.2
-24.08
-22.32
-15.04
11.08
46
86.2
132.44
190.84
240.16
253.16
221.16
166.28
115.32
77.88
53.8
46.36
38.52
26.68
20.56
13.64
7.72
-0.04
-7.8
-15.72
-23.68
-27.68
-23.76
-18.44
-17.6
-17.88
-21.68
-25.36
-24.6
-23.76
-25.84
-28.6
-32.2
-35.08
-33.12
-29.2
-27.32
-25.92
-27.04
-26.36
-28.32
-24.12
-24.24
-25.28
-29.32
-34.04
-34.76
-31.8
-29.76
-27.8
-23.88
-27.36
-25.48
-22.04
-20.16
-21.92
-26.88
-29.84
-25.92
-27.6
-28.56
-30.48
-34.36
-31.2
-29.4
-23.36
-21.8
-23.44
-23.64
-23.48
-25.68
-24.68
-20.64
-23.12
-27.04
-29.84
-25.88
-20.92
-16.04
-16.68
-19.92
-23.32
-17.76
-13.68
-10.84
-11.68
-11.36
-12.72
-13.6
-13.6
-9.44
-1.32
0.64
-0.04
6.64
11.16
13.8
15.04
11.96
10.2
12.44
14.8
15.96
17
17.4
18.64
22.52
27.72
32.44
30.08
30.12
24.4
25
24.16
19.84
14.2
5.28
-1.2
-1.56
4.92
7.6
8.08
4.96
3.16
3.92
3.6
-0.44
-4.08
-8.24
-16.4
-22
-24.16
-19.04
-14.92
-15.84
-11.04
-8.36
-4.48
-6.8
-8.08
-12.84
-12.56
-14.84
-16.24
-19.92
-21.12
-23.88
-22.84
-21.92
-15.4
-8
-4.2
-5.52
-7.88
-8.6
-7.32
-10.68
-14.04
-19.76
-22.76
-21.68
-18.96
-11.12
-8.64
-4.04
-3.24
-1.6
-0.04
-0.8
-2.44
-10.8
-13.2
-15.88
-12.92
-12.92
-11.32
-11.64
-7.2
-1.84
0.88
1.84
0.52
2.16
2.2
0.64
-0.4
0.88
-2.68
-6
-7.64
-5.08
-0.4
1.84
1.32
2.08
-1.72
-2.44
-0.76
1.52
0.16
-4.84
-8.72
-9.56
-7.6
-3
-2.2
-1.04
-0.68
-1.2
2.8
2.16
-0.16
-1.96
-7.4
-6.52
-7.68
-8.56
-8.6
-6.04
-7.12
-7.08
0.08
2.36
3.52
2.04
0.96
-0.8
-2.4
-0.6
-1.48
-4.12
-8.08
-5.36
4.28
12.44
18.92
24.56
28.64
31.92
29.84
27.28
21.76
18.72
14.88
13
16
15.8
14.6
10.88
7.36
11.04
13
12.24
7.28
0.92
-7.48
-10.52
-9.48
-11.24
-15.12
-16.24
-13.52
-10.32
-9.12
-7.32
-7.28
-8.72
-12.52
-14.8
-13.28
-14.4
-17.32
-22.92
-24.56
-21.68
-17.04
-15.64
-15.36
-21.4
-24.2
-17.8
5.28
44.16
92.92
144.92
203.08
249.4
247.56
205.52
150.28
98.92
62.12
45.04
34.96
26.28
21.6
16.52
8.28
-1
-9.16
-14.8
-21.44
-24.56
-29.88
-25.48
-20.48
-17.72
-18.92
-20.64
-24.2
-26.32
-23.72
-25.12
-26.32
-31.84
-33.32
-30.64
-25.04
-18.68
-17.56
-20.84
-23.04
-24.92
-23.4
-24.6
-23.92
-26.2
-33.32
-34
-30.64
-24.16
-21.44
-23.88
-25.64
-24
-21.4
-18.36
-19.64
-22.92
-25.24
-28.44
-29.68
-30.48
-30.08
-26.4
-25.68
-23.16
-19.2
-19.8
-21.32
-20.36
-20.8
-19.32
-19.64
-19.76
-20.76
-22.48
-23
-21.4
-14.64
-9.8
-10.76
-13.28
-12.8
-8.84
-5.28
-6.72
-5.8
-6.48
-8.44
-6.32
-1.96
0.68
3.64
7.64
10.68
14.12
15.32
15.2
18
18.8
18.84
18
19.88
20.04
22.56
25.36
24.24
27.24
33.16
36.76
37.24
34.2
29.08
24.44
23.12
22.64
14.48
5.4
1.64
0.04
4.08
6
4.4
0.24
2.24
4.8
3.92
3.64
-0.44
-6.6
-13.36
-16.24
-15.88
-17.28
-13.68
-11.32
-9.68
-7.56
-2.52
-1.88
-1.8
-1.96
-8.08
-13.4
-17.2
-21.2
-22.6
-21
-18.52
-16.48
-10.2
-3.96
0.2
-3.16
-6.16
-7.6
-8
-8.36
-13.08
-18.12
-19.6
-19.12
-16.56
-11.56
-6.36
-4.08
-4.92
-2.28
0.64
-0.88
-5.2
-8.44
-13.16
-16.56
-14.12
-13.64
-9.92
-7.88
-5.68
-1.6
1.2
6
2.76
1
-1.24
-0.44
2.28
-1.16
-4.04
-4.44
-5
-3.12
-0.48
5.84
9.08
7.6
4.28
4.24
2.52
1.96
1.28
0.68
-4.52
-6.28
-3.28
-0.32
0.36
0.76
-0.12
0.24
1.68
4.44
3.84
-0.68
-3.36
-5.28
-5.64
-5.44
-5.24
-3.04
-2.24
-0.08
2.76
4.88
4.52
6.4
6
0.6
0.76
1.88
-1.12
-3.6
-4.32
0.76
8.52
17.72
22.72
25.2
30.92
31.8
32.36
29.96
27.16
22.36
17.52
14.08
14.28
11.32
12.2
12.36
10.44
12
13.68
11.76
5.24
-4
-8.64
-9.6
-10.44
-11.96
-13.52
-14.44
-14.52
-11.48
-8.44
-6.68
-8.92
-10.84
-14.2
-14.36
-14.04
-16.88
-20.44
-23
-21.48
-19.36
-15.52
-18.28
-21.28
-23.52
-25.64
-14.6
15.08
57.96
108.52
162.88
218.56
252.8
246.12
199.12
145.16
93.56
56.72
40.4
34.96
25.84
19.56
14.52
3.96
-4.88
-13.32
-19.16
-24.8
-26.84
-25.96
-25.8
-22.72
-20.96
-20.48
-24.44
-27.76
-26
-28.8
-28.68
-32.92
-36.76
-36.32
-31.44
-25.76
-23.72
-24.48
-24.76
-26.24
-24.16
-24.64
-26
-26.84
-28.68
-31.84
-33.64
-34.28
-29.6
-25.76
-23.64
-23.16
-24.64
-25.32
-24.32
-23.84
-27.08
-29.76
-27.76
-29.04
-29.96
-30.56
-29.84
-28.88
-28.84
-22.68
-20.32
-17.04
-21.2
-23.96
-22.32
-25.08
-29.12
-24.16
-23.04
-22.64
-19.96
-17.04
-13.92
-9.68
-10.92
-12.68
-9.76
-5.68
-5.04
-2.48
-5.32
-5.12
-2.84
1.4
4.08
9.04
11.4
13.92
16.68
19.84
23.56
23.52
22.32
22.08
23.32
24.32
24.56
23.92
24.6
23.64
27.92
33.24
38.04
35.32
32.28
28.36
24.2
22
19.04
11.44
5.52
3.2
1.84
-0.56
-0.6
-2.72
-7.64
-8.6
-8.32
-7.2
-7.88
-7.92
-11.32
-16.52
-18.24
-18.52
-16.56
-16.48
-15.96
-19.56
-19.24
-15.84
-15.36
-11.2
-12.8
-15.84
-14.2
-16.56
-17.4
-19.68
-17.88
-20.76
-20.36
-19.12
-18.92
-14.44
-11.88
-12.84
-13.84
-13.16
-14.52
-18.76
-19.52
-21.76
-21.08
-17.08
-18.84
-16.68
-15.48
-13
-7.4
-6.56
-6.6
-8.88
-14.12
-19.4
-16.32
-15.52
-11.88
-11.92
-12.72
-16.6
-16.56
-11.24
-7.24
-5.2
-2.4
-1.52
-1.56
0.24
-1.44
-1.8
-4.96
-8.2
-11.32
-10.8
-10.52
-7.44
-7.76
-7
-3.4
1.04
2.64
0.2
-3.68
-6.16
-8.56
-8
-8.28
-10.68
-9.4
-8.28
-5.84
-4.36
-1.76
0.56
-0.6
-2.24
-4.32
-3.96
-3.36
-6.8
-8.12
-13.52
-12.32
-8.44
-4.04
0.4
1.92
-1.64
1.12
4.24
5.16
2.4
0.08
-3.28
-4.56
-1.04
5.04
10.96
17.6
23.24
27.6
29.92
32
30.12
27.28
26.6
23.4
21.04
17.6
15.44
9.68
8.8
7.28
10.92
14.48
11.76
6
-0.6
-5.28
-4
-6.36
-8.68
-12.92
-18.8
-20.64
-20.68
-13.08
-9.24
-10.48
-13
-12.76
-10.36
-11
-12.52
-13.72
-18.88
-21.24
-19
-19.84
-19.68
-19.92
-20.92
-23.12
-23.88
-17.56
-0.08
29.36
69.92
118.72
176.44
232.08
269.36
264.72
221.76
168.52
119.28
79.92
54.12
44.52
33.72
26.16
22.48
15.2
6.88
-2.48
-12.24
-16.08
-18.32
-19.56
-17.88
-19.16
-19
-21.6
-20.64
-21.24
-22.88
-26.12
-30.24
-31.6
-31.6
-27.56
-26.76
-28.08
-29.16
-25.52
-20.44
-17.92
-19.96
-23.48
-28.16
-30.4
-31.72
-29.2
-26.2
-25.04
-26.04
-26.4
-22.64
-19.16
-16.92
-19.36
-20.36
-19
-20.84
-22.12
-21.12
-27.6
-31.52
-30.48
-27.44
-23.84
-22.16
-22.64
-23.4
-20.92
-16.24
-12.76
-17.56
-23.56
-26.6
-25.28
-24.56
-22.76
-20.8
-19.2
-16.6
-14.28
-11.04
-7.6
-8.8
-9.32
-13.92
-13.92
-12
-12.76
-13.92
-12.92
-11.84
-7.32
-1.92
2.6
6
3.76
5.6
7.16
9.56
10.4
12.56
11
7.88
8.92
14.92
20.48
22.96
26.6
26.12
29.8
33.48
32
32.48
31.6
29.76
26.16
25.96
26.88
26.96
24.8
22.44
26.16
29.48
27.36
27.2
20.92
16.16
9.36
5
2.68
-3.2
-7.16
-8.84
-7
-6.84
-5.32
-2
-4.24
-3.72
-5
-5.36
-3.08
-6.08
-14.12
-20.88
-22.96
-20.6
-18.76
-16.28
-15.28
-12.84
-10.32
-8.16
-5.56
-7.8
-13.32
-17.24
-18.36
-23.44
-23.72
-25.36
-23.32
-23.64
-20.76
-10.48
-5.96
-4.84
-5.2
-9.4
-12.92
-15.84
-18.04
-18.04
-21.32
-20.96
-22.08
-16.56
-11.88
-8.64
-7.76
-5.04
-7.16
-1.76
-1.32
-2.84
-4.56
-6.96
-10.48
-8.08
-10.6
-8.12
-8.88
-5.6
-4.16
-0.96
1.68
1.92
2.16
-3.56
-5.52
-5.44
-6.2
-7.88
-8.64
-11.04
-9
-7.8
-4.64
-4.36
-3.64
-3.44
-2.24
-1.08
-0.24
-1.08
-7.6
-12.36
-12.36
-9.92
-4.92
-5.56
-3.44
-6.24
-0.64
2.2
3.36
-1.6
-5.48
-7.16
-6.76
-9.76
-7.04
-4.56
-3.52
-3.16
-2.16
2.8
6.36
7.12
3.32
3.56
5.32
8.52
10.92
13.84
13.56
16.12
24.16
25.4
28.48
27.72
28.52
24.28
22.32
21.52
20.48
17.84
10.48
6.64
4.44
8.96
8
9.48
5.8
3.12
0.08
-1.32
1.64
-2
-6.8
-10.36
-12.6
-13.48
-15.68
-16.92
-16.8
-16.16
-12.92
-9.64
-7.56
-7.84
-12.76
-14.12
-13.8
-17.48
-15.84
-17.48
-23.48
-23.68
-23.4
-20.88
-20.68
-20.16
-21
-16.24
5.88
42.44
84.64
129.96
180.68
227
254.84
246.36
206.76
160.28
117.4
74.92
49.92
40.48
36.24
26.84
17.2
11.48
6.24
0.32
-4.88
-10.48
-18.04
-22.6
-20.72
-17.36
-16.44
-16.8
-22.76
-25.04
-26.76
-25.72
-25.08
-29
-30.04
-32.6
-30.36
-27.92
-26.2
-21.76
-20.56
-22.04
-22.04
-25.48
-25.12
-26.16
-29.36
-33.32
-33.36
-32.16
-29.04
-27.2
-28.36
-24.92
-23.6
-22.44
-21.52
-21.88
-27.44
-31.36
-32.64
-30.56
-27.84
-27.52
-30.32
-30.48
-27.84
-24.36
-23.24
-21.88
-22.96
-24.56
-27.2
-25.4
-26.04
-30
-29.4
-31.96
-27.68
-23.92
-18.32
-17.76
-17.44
-16.96
-17.96
-17.76
-13.36
-16.44
-20.96
-21.8
-21.16
-19.76
-14.4
-11.56
-6.72
-4.96
-2.64
2.76
2.84
6.16
2.76
0.84
1.12
2.16
4.68
6.32
9.92
13.64
15.44
22.04
27.56
29.12
28.28
25.52
28.96
27
25.36
26.4
26.24
25.24
26
29.48
31.04
30.2
29.8
24.84
22.08
19.32
14.64
9.2
2.56
-3.8
-5.84
-0.88
4.64
4.44
3.64
2
-0.08
-1.08
0.2
-2.44
-9.8
-15
-19.6
-19.88
-16.88
-15.52
-10.04
-8.16
-7.24
-2.96
-2.24
-3.24
-5.6
-11.4
-16.88
-19.24
-17.92
-20.12
-21.12
-17.76
-15.32
-10.64
-4.72
-5.24
-6.52
-7.44
-10.04
-11
-12.48
-14.8
-18.2
-19.36
-19.56
-13.32
-10
-4.32
-3.4
-1.96
-2.28
-2.08
1.04
-2.48
-6.12
-9.48
-12.68
-7
-4.2
-0.28
-0.52
3.28
4.32
6.92
7.4
4.32
0.36
-4.52
-8.44
-7.88
-5.44
-1.96
-4.36
-2.64
1.76
2.08
6.04
4.76
0.28
0.16
-3.92
-2.88
-4.04
-5.36
-7.84
-7.48
-5.92
-0.32
3.88
2.12
1.04
0.84
-2.68
1.04
-0.04
-4.16
-6.36
-7.72
-7.36
-7.16
-2.68
-0.08
1.12
2.36
5.08
4.88
6.24
3.84
2.88
5.72
5.28
9.76
17.16
23.56
26.2
27.96
24.96
29.08
28.8
28.8
25.24
19.96
17.16
14.96
11.52
9.24
7.84
6.32
7.12
7.76
7.8
6.08
1.12
-4.88
-5.4
-5.72
-7.52
-10.56
-14.72
-19
-18.44
-17.12
-11.28
-12.48
-13.24
-11.92
-10.68
-10.72
-11.24
-14.32
-16.04
-19.96
-20.08
-20.56
-19.88
-19.36
-21.28
-25.4
-28.16
-22.84
-17.68
-2.56
23.16
60.24
103.52
152.44
207.48
247.96
252.8
219.48
169.56
125.32
89.4
56.68
41.88
35.04
26.72
21.6
17.72
12.76
3.64
-4.88
-11.24
-13.8
-13.96
-17.08
-17
-18.84
-17.72
-19.76
-19.2
-22.36
-29
-29.92
-32.2
-31.84
-30.36
-29.84
-28.88
-28.04
-26.88
-22.92
-21.84
-24.72
-24.2
-28.32
-27.92
-27.04
-27.48
-32.04
-35.4
-34.84
-33.04
-28.24
-25.12
-24.08
-25.88
-25.72
-27.28
-27.48
-24.24
-25.32
-29.68
-33.12
-35.48
-32
-26.36
-24.4
-25.36
-26.24
-24.12
-22.04
-18.52
-22.76
-25.44
-27.72
-31.44
-35.32
-30
-27.44
-24.72
-22.56
-21.48
-15.36
-13.32
-14.04
-15.32
-16.48
-20.2
-22.6
-19.52
-21.16
-20.64
-17.88
-15.16
-12.04
-4.76
-1.56
-0.16
1.04
1.72
2.72
1.84
0.56
0.76
1.24
3.72
7.32
12.04
16.32
19.72
19.84
22.2
24.36
26.88
30.12
27.24
25.96
25.36
25.92
25.56
26.24
27.92
26.88
27.96
27.36
26.84
21.68
17
13.04
7.92
7.88
6.52
5.2
3.48
1.8
1.76
5
7.2
3.88
-1.56
-4.48
-8.92
-9.76
-10.68
-13.56
-14.84
-15.24
-14.88
-7.68
-4.8
-4.64
-5.44
-6.8
-10.48
-11.6
-13.16
-15.76
-17.76
-16.68
-20.08
-14.6
-13.32
-13
-12.84
-10.8
-8.72
-8.28
-7.92
-9.12
-13.56
-18.16
-19.04
-17.2
-16.6
-15.08
-16.76
-15.32
-12.28
-8.6
-5.8
-4.16
-6.56
-11.12
-12.56
-11.68
-6.8
-7.84
-3
-2.72
-0.32
0.64
3.56
3.36
3.72
1
-2
-1.92
-3.76
-3.12
-4.28
-3.32
-1.76
1.08
4.08
2.92
1.72
1.28
-0.44
0.6
-1.52
-4.56
-5.36
-6.84
-7.24
-3.36
0.08
1
2
-0.08
1.64
2.8
0.88
-2.04
-3.16
-8.24
-10.08
-8.84
-4.08
-1.2
0.32
0.16
0
1.8
4.4
3.56
3.68
1.84
0.6
0.52
-4.36
-3.12
0.96
6.04
14.52
25.28
31
33.96
32.88
29.12
24.2
24.32
25.2
21.36
15.64
10.92
10.96
13.08
17.44
15.24
14.24
12.24
8.36
8.56
4.48
-0.2
-7.24
-8
-12.64
-16.52
-13.68
-11.44
-11.88
-12.92
-12.88
-8.76
-8.76
-9.48
-11.4
-13.92
-15.88
-16.6
-17.36
-19.24
-17.24
-16.92
-20.2
-20.2
-22.12
-23.96
-19.76
-11.36
19.72
61.16
109.2
165.52
220.88
249.2
232.16
183.48
131.24
86.28
54.4
44.64
38.76
30.96
21.96
16.36
12.52
4.76
-5.8
-13.68
-19
-20.6
-21.84
-18.8
-20.84
-19.76
-18.84
-18.52
-21.48
-25.16
-26.12
-29
-27.64
-33.56
-30.8
-28.6
-25.72
-23.8
-19.96
-21.64
-24.64
-25.36
-26.36
-23.12
-25.16
-25.04
-29.68
-32.6
-34.84
-28.68
-24.92
-22.88
-22.04
-24.8
-25.8
-23.6
-22.6
-25.2
-28.08
-30.84
-31.56
-31.76
-30.16
-29.96
-27.04
-26.92
-23.28
-20.28
-19.28
-19.08
-22
-23.4
-25.52
-25.64
-25.64
-24.88
-25.32
-26.28
-24.16
-18.12
-13.52
-13.48
-12.28
-11.96
-12.8
-11.36
-9.44
-10.36
-12.24
-12.32
-10.76
-5.72
-0.68
1.56
4.36
2.56
3.8
12.04
15.16
15.84
14.96
11
11.08
13.92
12.48
17.64
19.8
20.96
22.92
25.84
29.16
31.44
30.6
27.2
26.4
24.32
22.44
22.44
20.28
18.56
19.68
21.64
22.72
20.36
15.16
10.68
5.68
1.08
-2.52
-7.44
-7.28
-10.04
-7.08
-4.48
0.32
-0.12
-0.48
-0.4
-5.52
-6.92
-7.16
-10.52
-12.72
-16.32
-19.24
-14.2
-8.4
-7.64
-3.64
-5.2
-4.56
-6.64
-4
-7.32
-9.64
-15.12
-18.56
-19.08
-15.2
-12.28
-12.32
-9.48
-7.56
-4.28
-1.72
-0.76
-3.96
-7.24
-9.48
-13.16
-13.8
-13.24
-13.32
-13.32
-10.2
-5.4
-1.8
1.28
0.68
-2.36
-1.28
-1.36
-1.44
-2.32
-4.88
-3.96
-5.72
-0.76
4.64
4.44
3.88
2.24
2.32
1.68
3.4
-1
-3.44
-6.44
-8.08
-4.56
-2.6
0.96
1.16
4.84
1.16
3.52
4.36
2.52
0.36
-3.04
-6.56
-7.88
-8.4
-6.04
-3
-2.68
-1.44
2.2
2.44
4.76
3.68
2.64
-0.64
-1.2
-2.84
-7.96
-10.36
-10.96
-9.2
-4.16
1.96
4.8
2.2
1.44
2.4
6.08
5.76
5.24
2.84
-2.32
2.28
9.6
18.6
21.52
28.76
31.76
30.32
30.56
31.64
29.28
26.12
20.72
17.36
18.08
15.76
14.32
13.4
11.48
11.56
12.4
15.04
11.6
7.84
0.56
-2.6
-3
-5.44
-10.64
-15.76
-14
-9.96
-7.76
-6.68
-5.72
-6
-4.4
-9
-6.52
-7.64
-8.72
-12.96
-13.96
-15
-13.44
-12.4
-13
-13.92
-13.8
-12.12
-8.72
11.64
43.36
83.32
125.36
178.12
230.88
251.84
226.48
174.68
122.16
74.08
45.92
36.44
30.96
21.4
11.04
6.84
-0.28
-0.64
-7.04
-14.04
-22.48
-22.2
-20
-15.16
-17.44
-18.76
-19.2
-21.72
-22.16
-21.56
-24.72
-27.92
-30.24
-29.16
-28.8
-24.68
-23.36
-23.36
-23.76
-22.8
-21.68
-21.28
-20.6
-25.8
-29
-34.24
-32.68
-27.68
-27.32
-24.96
-26.52
-27.64
-27.08
-23.28
-20.12
-19.6
-23.84
-28.04
-26.44
-25.72
-30.2
-31.96
-31.56
-30.28
-24.04
-22.28
-21.6
-20.84
-24.52
-25.08
-22.48
-20.68
-22.12
-23.28
-26.72
-26.52
-21.44
-21.72
-17.56
-16.8
-16.2
-15.4
-14.2
-11.76
-8.12
-11.08
-12.4
-14.48
-11.04
-12.84
-8.48
-5.76
-3.44
-0.6
2.12
5.8
7.32
7.88
8.52
7.64
9.2
10.16
7.8
5
7.4
13.16
19.4
21.16
21.92
20.72
23.4
22
23.56
22.56
22.2
16.2
13.84
13.12
15.4
12.32
17.8
17.64
12.92
9.16
5.92
3.44
2.8
-3.56
-9.04
-13.04
-10.12
-9.28
-9.68
-6.04
-5.92
-0.76
2
-0.68
-5.8
-8
-14.4
-16.64
-19.04
-17.92
-16.76
-15
-15.48
-10.92
-10.96
-7.92
-6.16
-5.72
-7.96
-12.28
-12.96
-16.32
-18.64
-20.6
-23.44
-21.84
-15.36
-9.8
-8.8
-8.72
-7.88
-7.44
-4.84
-5.32
-12.92
-15.16
-18.4
-19.48
-15.36
-11.92
-10.4
-10.84
-9.8
-6.76
-2.2
0.32
-3.88
-6.6
-8.76
-10.4
-10
-7.92
-2.56
-1.36
-0.84
-1.4
1.4
3.36
5.72
2.76
-2.6
-6.64
-7.2
-8.04
-7.88
-7.8
-7.68
-6.76
-2.8
-0.52
0.32
-0.68
-0.52
-7.48
-2.12
-2.32
-9.92
-12.72
-14.6
-11.64
-8.6
-4.8
-2.92
-3.68
-4.88
-5.08
-5.08
-3.08
-4.68
-7.88
-11.44
-15.36
-13.44
-10.64
-7.52
-8.56
-6.84
-3.4
0.16
2.84
0.92
1.96
-2.4
-3.48
-5.12
-5.16
-4.04
-3.92
-1.76
0.24
8.92
20.4
25.24
28.04
28.08
25.16
24.6
23.56
20.08
15.2
8.56
7.8
11.8
13.76
10.64
12.08
10.16
5.92
4.88
2.96
-4.56
-7.4
-10.64
-15.52
-15.32
-16.16
-17.92
-14.96
-12.8
-11.4
-10.28
-9.56
-8.6
-12.52
-15.84
-18.52
-18.84
-19.8
-21.48
-20.04
-20.88
-21.92
-18.88
-21.36
-23
-21.16
-8.24
26.68
72.28
124.44
182.32
240.4
268.84
245.2
187.32
131.04
81.12
46.44
33.04
29.84
18.4
13.12
8.76
1.92
-6.92
-14
-20.76
-23.56
-24.32
-21.6
-20.72
-20.48
-18.96
-18.12
-19.48
-21.92
-24.32
-26.08
-27.12
-28.16
-29.92
-26.52
-27.24
-25.6
-22.96
-19.72
-19.36
-21.4
-24.76
-27.08
-23.52
-25.36
-25.32
-30.28
-32.96
-30.68
-26.64
-21.12
-20.32
-19.92
-22.48
-24.6
-20.12
-22.56
-25.84
-25.52
-30.56
-31.4
-30.16
-27.96
-26.8
-22.28
-22.48
-22.12
-19.8
-18
-18.48
-17.76
-21.16
-23.8
-24.96
-24.84
-25.64
-22.36
-18.16
-15.72
-10.16
-6.96
-6.48
-4.6
-4.04
-7.56
-3.44
-3.44
-3.68
-4.6
-6.28
-2.8
1.2
7.52
10.12
14.6
16.24
19.2
20.8
20.04
18.52
17.68
16.28
13.4
15.68
18.28
22.44
26.04
30.76
27.24
30.84
30.64
27.32
27.72
23.28
19.4
15.92
13.84
11.28
8.08
7.4
6.84
8.52
8
6.76
3.76
3.6
1
0.36
-2.48
-4.84
-7.72
-14
-14.28
-9.76
-7.84
-8.76
-10.04
-14.68
-16.96
-17.2
-18
-17.36
-18.68
-19.84
-22.28
-18.24
-14.48
-12.6
-13.48
-17.36
-15.4
-16.92
-17.08
-17.12
-14.72
-17.92
-20.2
-16.56
-15.24
-15.12
-17.28
-13.52
-15.28
-11.16
-10.24
-12.68
-17.84
-18.84
-17.44
-12.72
-9.12
-11.52
-13.16
-15
-15.04
-12.44
-6.48
-6.24
-6.48
-10.08
-13
-10.52
-7.76
-8.24
-5.24
-7.2
-4.4
-1.2
0.64
-0.2
-3.6
-4.4
-4.04
-6.28
-6.32
-8.32
-5.64
-6.28
-5.4
-1.64
-0.24
0.8
-1.4
-2.4
-2.88
-2.8
-3.56
-3.76
-7.76
-8.72
-10.16
-8
-5.24
-2.52
-3.04
-3.96
-1.08
0.64
0.92
-2.04
-5.6
-10.88
-12.88
-11.16
-6.8
-4.6
-3.76
-4.08
-4.72
-2.8
-0.04
-0.28
-0.88
-4.88
-9.56
-10.08
-9.24
-8.36
-9.08
-6.96
-5.92
-1.52
0.88
3.8
3.68
4.44
2.88
4.68
5
1.56
-0.28
-0.28
4.24
14.32
24.32
29.76
33.4
32.48
27.64
29.4
28.84
27.88
20.32
14.84
10.28
8.36
8.8
9.12
10.24
10.76
10.64
11.56
11.84
7.64
0.24
-4.6
-7.96
-10.48
-7.96
-10.84
-11.2
-10.92
-7.72
-5.16
-0.36
-0.4
-1.96
-6
-7.4
-8.2
-7.8
-10.2
-13.68
-20.64
-17.92
-13.72
-10.68
-11.28
-12.36
-16.52
-14.2
4.64
40.08
85.24
137.6
200.2
258.56
284.48
263.16
209.44
150.48
96
58.84
45.4
43.6
35.56
28
20.24
12.56
4.96
-3.72
-10.72
-16
-23.64
-22.64
-17.12
-12.4
-12.72
-15.4
-17.4
-21.96
-23.96
-24.64
-28.28
-28.76
-29.64
-31.76
-29.6
-24.8
-20.08
-18.32
-19.56
-21.32
-21.28
-20.04
-23.84
-25.48
-26.16
-31.64
-31.64
