-69
-69
-69
-69
-69
-69
-69
-69
-66
-64
-64
-65
-66
-65
-63
-61
-60
-63
-64
-63
-60
-58
-58
-59
-58
-59
-57
-51
-46
-40
-39
-32
-32
-33
-40
-40
-42
-42
-41
-42
-42
-44
-50
-50
-50
-52
-53
-55
-61
-64
-66
-64
-64
-63
-68
-70
-67
-64
-62
-67
-69
-70
-70
-71
-70
-70
-74
-72
-69
-65
-65
-67
-74
-80
-80
-79
-70
-42
-2
49
106
170
217
213
163
96
42
-2
-29
-37
-48
-57
-57
-57
-58
-60
-67
-72
-72
-77
-79
-83
-86
-87
-81
-82
-81
-83
-88
-86
-83
-84
-83
-84
-86
-88
-85
-83
-85
-86
-85
-83
-84
-83
-84
-84
-87
-83
-83
-80
-79
-82
-85
-83
-81
-79
-80
-82
-84
-82
-79
-76
-78
-80
-83
-84
-77
-75
-76
-75
-73
-70
-70
-70
-68
-70
-70
-65
-64
-62
-62
-62
-61
-57
-54
-53
-53
-51
-48
-44
-42
-41
-38
-35
-35
-33
-31
-29
-26
-25
-27
-25
-22
-18
-21
-24
-24
-24
-22
-22
-26
-32
-33
-34
-34
-36
-41
-45
-47
-49
-50
-51
-53
-55
-57
-59
-58
-61
-63
-66
-68
-65
-65
-63
-62
-67
-71
-71
-73
-69
-69
-66
-70
-71
-68
-69
-69
-70
-70
-70
-69
-66
-68
-70
-72
-70
-68
-66
-64
-65
-64
-65
-64
-63
-65
-69
-70
-66
-64
-61
-61
-60
-64
-65
-65
-61
-58
-61
-64
-65
-65
-62
-62
-62
-65
-62
-62
-63
-62
-64
-66
-64
-63
-63
-63
-68
-68
-65
-62
-61
-64
-64
-66
-66
-67
-64
-64
-66
-68
-69
-67
-64
-66
-65
-64
-65
-65
-63
-63
-64
-67
-67
-65
-64
-66
-68
-70
-66
-67
-65
-62
-68
-71
-67
-64
-61
-62
-63
-64
-70
-63
-64
-64
-64
-64
-64
-62
-62
-63
-63
-62
-59
-56
-56
-58
-59
-59
-57
-55
-48
-44
-43
-43
-35
-29
-28
-30
-37
-42
-43
-43
-41
-42
-43
-47
-51
-50
-50
-48
-51
-54
-55
-60
-60
-65
-64
-65
-63
-61
-61
-63
-64
-71
-70
-70
-67
-64
-65
-68
-70
-65
-61
-62
-65
-72
-71
-72
-71
-72
-74
-54
-17
27
77
138
189
204
178
121
69
23
-11
-28
-37
-47
-48
-50
-54
-60
-63
-68
-74
-76
-81
-79
-77
-75
-73
-75
-79
-83
-84
-81
-78
-82
-80
-82
-78
-79
-78
-79
-83
-85
-84
-79
-78
-80
-81
-81
-79
-77
-77
-77
-80
-81
-81
-80
-78
-77
-80
-83
-81
-78
-75
-74
-77
-80
-77
-74
-72
-73
-73
-75
-76
-71
-68
-68
-67
-69
-67
-64
-63
-66
-63
-66
-63
-60
-55
-51
-48
-51
-49
-47
-44
-42
-42
-43
-41
-37
-34
-30
-28
-29
-28
-23
-24
-25
-23
-26
-24
-24
-25
-23
-26
-25
-25
-26
-28
-32
-34
-38
-39
-38
-36
-39
-45
-47
-48
-47
-47
-48
-54
-55
-56
-55
-55
-56
-60
-62
-62
-61
-59
-59
-62
-64
-61
-60
-59
-63
-63
-64
-61
-61
-59
-62
-61
-60
-61
-60
-62
-59
-59
-59
-58
-57
-56
-55
-55
-57
-58
-55
-56
-54
-57
-59
-59
-55
-54
-53
-53
-54
-53
-54
-52
-52
-53
-57
-57
-55
-52
-53
-56
-57
-56
-53
-53
-53
-53
-53
-54
-54
-51
-53
-56
-58
-56
-54
-54
-53
-53
-59
-56
-57
-53
-53
-56
-57
-57
-55
-55
-55
-55
-57
-57
-54
-53
-54
-55
-57
-56
-53
-53
-55
-54
-55
-55
-55
-52
-53
-55
-57
-56
-56
-52
-54
-55
-56
-56
-54
-51
-45
-47
-49
-48
-44
-42
-43
-44
-45
-47
-46
-44
-38
-36
-37
-30
-23
-21
-20
-25
-30
-31
-30
-32
-35
-37
-40
-38
-38
-36
-39
-42
-45
-44
-45
-48
-48
-52
-58
-57
-56
-53
-55
-59
-61
-59
-58
-55
-57
-59
-61
-64
-61
-59
-60
-61
-61
-59
-57
-58
-62
-68
-74
-73
-58
-30
13
59
108
168
217
233
208
153
96
44
3
-16
-23
-37
-47
-49
-47
-48
-52
-60
-69
-70
-73
-70
-73
-75
-78
-75
-74
-74
-75
-77
-78
-79
-80
-78
-78
-80
-80
-78
-77
-77
-77
-79
-82
-80
-78
-77
-79
-79
-81
-81
-78
-76
-76
-79
-80
-82
-78
-77
-75
-77
-79
-79
-78
-76
-77
-78
-79
-77
-75
-73
-73
-74
-74
-73
-70
-68
-69
-69
-72
-70
-64
-61
-58
-60
-58
-59
-56
-51
-47
-49
-49
-47
-45
-41
-36
-36
-38
-34
-31
-29
-28
-30
-28
-29
-27
-22
-26
-25
-26
-27
-24
-24
-24
-29
-33
-34
-35
-35
-38
-43
-45
-47
-50
-49
-53
-54
-59
-63
-61
-59
-60
-63
-65
-65
-65
-65
-66
-68
-71
-72
-70
-67
-71
-72
-73
-73
-69
-70
-72
-72
-71
-70
-69
-67
-69
-73
-75
-73
-70
-71
-69
-70
-70
-71
-69
-66
-65
-66
-70
-70
-70
-68
-68
-70
-71
-69
-67
-66
-68
-68
-70
-68
-65
-65
-64
-68
-71
-72
-71
-69
-66
-67
-69
-69
-70
-66
-66
-69
-69
-70
-68
-69
-69
-69
-70
-69
-69
-67
-71
-72
-73
-73
-72
-70
-71
-71
-71
-70
-69
-68
-71
-74
-76
-76
-75
-73
-72
-71
-71
-73
-73
-69
-68
-72
-77
-76
-72
-69
-69
-73
-75
-77
-71
-70
-70
-72
-74
-74
-71
-70
-70
-73
-73
-72
-67
-65
-66
-65
-66
-63
-61
-62
-64
-65
-64
-62
-56
-53
-49
-48
-46
-46
-45
-44
-47
-50
-53
-55
-51
-52
-51
-54
-60
-63
-63
-64
-65
-67
-71
-73
-73
-76
-78
-80
-79
-76
-75
-77
-83
-84
-84
-85
-83
-81
-82
-85
-86
-82
-79
-80
-84
-85
-87
-90
-91
-93
-90
-82
-53
-5
41
92
143
195
219
202
151
92
38
-10
-37
-45
-50
-56
-65
-70
-71
-70
-73
-77
-85
-89
-89
-91
-90
-91
-96
-99
-97
-95
-94
-94
-96
-101
-100
-98
-96
-99
-100
-98
-98
-95
-93
-95
-95
-97
-98
-96
-95
-93
-95
-98
-95
-93
-95
-97
-97
-97
-95
-94
-93
-95
-95
-96
-94
-95
-92
-92
-93
-97
-95
-94
-91
-93
-91
-92
-92
-91
-87
-87
-86
-87
-87
-83
-82
-80
-79
-82
-80
-76
-71
-71
-75
-71
-69
-64
-61
-58
-58
-56
-55
-51
-47
-47
-47
-49
-48
-42
-39
-36
-38
-39
-38
-37
-35
-34
-36
-37
-35
-38
-38
-39
-42
-47
-52
-51
-51
-54
-59
-64
-67
-69
-65
-66
-71
-74
-74
-75
-73
-75
-76
-78
-82
-81
-81
-79
-82
-84
-84
-82
-78
-79
-81
-83
-84
-83
-82
-83
-84
-85
-85
-85
-80
-81
-83
-85
-84
-84
-84
-86
-86
-86
-86
-81
-81
-81
-83
-86
-84
-83
-82
-80
-83
-83
-83
-82
-78
-78
-80
-82
-83
-79
-77
-78
-81
-79
-80
-77
-76
-78
-80
-83
-82
-80
-80
-82
-84
-81
-82
-80
-80
-79
-80
-83
-84
-83
-82
-84
-84
-84
-86
-83
-79
-80
-81
-84
-87
-85
-84
-83
-81
-82
-86
-86
-79
-82
-84
-85
-83
-81
-82
-81
-83
-83
-83
-81
-77
-82
-84
-86
-84
-82
-80
-81
-84
-84
-86
-83
-80
-82
-81
-81
-83
-80
-82
-82
-84
-82
-81
-78
-75
-75
-75
-75
-75
-73
-69
-69
-70
-75
-74
-67
-58
-54
-50
-47
-45
-45
-45
-49
-49
-52
-54
-55
-54
-55
-58
-62
-63
-64
-64
-66
-71
-76
-78
-79
-77
-80
-80
-84
-87
-85
-82
-84
-84
-86
-87
-86
-83
-85
-87
-88
-85
-86
-84
-82
-84
-86
-91
-92
-94
-98
-95
-83
-54
-9
36
86
144
196
220
208
158
96
35
-15
-46
-56
-61
-71
-76
-79
-79
-79
-80
-86
-91
-94
-97
-97
-97
-101
-102
-101
-103
-100
-98
-98
-99
-102
-105
-102
-98
-98
-97
-98
-101
-100
-97
-98
-98
-99
-97
-97
-97
-97
-98
-98
-97
-94
-94
-96
-95
-98
-98
-94
-91
-90
-91
-92
-94
-92
-91
-89
-93
-94
-92
-90
-86
-87
-85
-86
-87
-86
-84
-84
-84
-85
-82
-78
-75
-76
-74
-74
-76
-74
-71
-69
-71
-69
-68
-63
-60
-59
-56
-56
-54
-50
-49
-49
-47
-46
-47
-45
-41
-39
-39
-39
-40
-36
-34
-34
-34
-37
-37
-35
-33
-33
-36
-36
-37
-39
-41
-46
-48
-49
-53
-54
-54
-57
-61
-63
-63
-63
-62
-63
-64
-67
-68
-68
-67
-68
-69
-72
-73
-71
-70
-69
-72
-75
-74
-74
-73
-72
-73
-75
-73
-70
-66
-69
-70
-70
-70
-69
-66
-67
-68
-71
-73
-68
-66
-67
-68
-69
-69
-68
-64
-66
-68
-66
-67
-67
-66
-67
-67
-67
-67
-65
-62
-63
-65
-64
-67
-64
-62
-63
-64
-64
-64
-64
-62
-64
-64
-66
-68
-64
-62
-62
-65
-67
-67
-63
-63
-66
-66
-66
-66
-66
-62
-64
-66
-66
-66
-65
-63
-64
-65
-66
-67
-65
-61
-63
-64
-66
-66
-63
-63
-62
-65
-65
-65
-63
-62
-63
-64
-65
-64
-63
-63
-62
-65
-66
-65
-65
-62
-60
-64
-64
-66
-65
-62
-64
-63
-63
-64
-65
-62
-61
-62
-64
-66
-63
-59
-58
-58
-62
-60
-57
-56
-56
-55
-57
-55
-50
-44
-40
-40
-36
-31
-26
-25
-26
-33
-36
-38
-39
-38
-40
-43
-44
-45
-46
-43
-47
-51
-52
-57
-59
-62
-62
-65
-67
-71
-70
-70
-72
-72
-74
-75
-72
-70
-70
-74
-77
-77
-75
-72
-74
-74
-74
-75
-78
-77
-81
-86
-86
-83
-60
-27
15
55
103
157
195
200
164
106
53
0
-40
-54
-60
-67
-74
-74
-72
-73
-78
-83
-91
-96
-94
-93
-96
-95
-100
-99
-97
-98
-98
-100
-103
-103
-100
-97
-97
-98
-102
-104
-104
-102
-99
-98
-100
-100
-103
-103
-104
-104
-104
-105
-101
-100
-98
-103
-103
-107
-102
-103
-103
-108
-109
-104
-102
-97
-97
-99
-102
-105
-102
-100
-99
-102
-101
-100
-95
-98
-96
-97
-99
-99
-99
-99
-98
-99
-97
-94
-90
-88
-88
-90
-93
-91
-89
-83
-84
-82
-83
-82
-79
-74
-73
-71
-72
-74
-71
-64
-61
-64
-65
-66
-63
-59
-60
-56
-57
-56
-55
-53
-53
-54
-56
-58
-59
-59
-61
-64
-64
-67
-66
-67
-72
-71
-73
-76
-81
-81
-83
-88
-87
-89
-88
-84
-85
-89
-90
-92
-89
-90
-91
-93
-94
-93
-88
-88
-92
-93
-93
-91
-91
-96
-98
-96
-96
-101
-97
-92
-91
-93
-96
-98
-93
-87
-86
-91
-97
-98
-92
-89
-90
-94
-97
-94
-90
-89
-88
-85
-92
-92
-91
-91
-91
-90
-92
-91
-88
-86
-86
-89
-90
-90
-89
-89
-92
-94
-92
-93
-90
-89
-86
-89
-92
-92
-87
-88
-86
-85
-89
-91
-93
-93
-94
-92
-91
-89
-89
-91
-90
-89
-90
-94
-96
-91
-87
-88
-90
-94
-93
-89
-89
-93
-94
-93
-93
-93
-95
-96
-96
-95
-95
-91
-92
-94
-96
-96
-92
-92
-92
-92
-92
-94
-90
-88
-84
-83
-85
-85
-84
-81
-78
-80
-83
-80
-73
-64
-58
-61
-69
-77
-69
-68
-65
-70
-76
-80
-78
-76
-80
-81
-86
-90
-91
-90
-92
-94
-95
-98
-95
-94
-93
-93
-95
-94
-91
-92
-101
-110
-110
-107
-100
-93
-90
-95
-102
-107
-109
-104
-105
-105
-108
-107
-92
-62
-16
37
95
156
205
213
170
103
41
-19
-58
-76
-81
-93
-97
-101
-101
-101
-101
-108
-113
-118
-115
-111
-111
-112
-113
-117
-115
-113
-114
-112
-113
-114
-114
-112
-110
-114
-112
-116
-114
-115
-113
-115
-114
-114
-116
-114
-112
-113
-112
-113
-111
-111
-113
-111
-112
-115
-113
-110
-108
-106
-108
-114
-114
-113
-113
-111
-111
-111
-106
-104
-105
-105
-107
-106
-104
-100
-100
-103
-105
-105
-98
-95
-93
-96
-94
-94
-90
-89
-88
-87
-89
-89
-87
-87
-84
-79
-76
-71
-68
-66
-69
-68
-69
-69
-66
-62
-61
-59
-60
-63
-61
-56
-59
-60
-61
-62
-63
-65
-64
-64
-70
-72
-74
-74
-74
-77
-81
-82
-81
-82
-83
-87
-89
-94
-89
-89
-85
-91
-92
-93
-93
-93
-93
-91
-90
-92
-90
-89
-91
-93
-92
-93
-89
-86
-85
-89
-88
-90
-91
-87
-86
-86
-91
-93
-88
-85
-84
-88
-90
-87
-84
-80
-80
-82
-85
-85
-83
-83
-85
-83
-83
-83
-80
-80
-82
-85
-85
-84
-82
-80
-82
-85
-87
-88
-78
-77
-74
-72
-70
-71
-78
-82
-90
-92
-93
-93
-88
-78
-71
-61
-63
-74
-85
-87
-87
-84
-78
-74
-73
-70
-75
-78
-85
-84
-82
-81
-79
-79
-77
-78
-77
-76
-75
-73
-72
-71
-71
-70
-74
-75
-76
-77
-74
-71
-73
-74
-76
-76
-73
-68
-66
-67
-69
-70
-71
-65
-62
-64
-66
-64
-58
-51
-46
-38
-35
-37
-36
-40
-41
-44
-46
-47
-49
-50
-50
-51
-50
-50
-48
-51
-54
-55
-55
-57
-56
-61
-69
-73
-71
-73
-74
-71
-75
-73
-77
-76
-75
-72
-74
-75
-77
-75
-73
-69
-73
-77
-84
-88
-90
-76
-44
2
64
139
219
273
275
226
150
78
24
-3
-13
-20
-34
-40
-45
-47
-54
-61
-71
-75
-76
-79
-76
-79
-81
-85
-83
-82
-81
-80
-84
-86
-83
-83
-85
-87
-85
-86
-84
-82
-81
-83
-83
-85
-82
-80
-78
-81
-83
-84
-82
-78
-78
-79
-83
-84
-80
-79
-82
-84
-84
-83
-83
-78
-79
-78
-79
-78
-79
-78
-77
-77
-79
-77
-75
-72
-75
-74
-72
-71
-66
-64
-63
-64
-65
-64
-56
-52
-51
-52
-53
-52
-46
-41
-38
-38
-38
-37
-31
-27
-23
-25
-25
-22
-22
-21
-18
-18
-16
-16
-18
-13
-18
-18
-18
-20
-22
-25
-26
-29
-33
-38
-39
-40
-42
-46
-49
-52
-54
-53
-54
-56
-59
-65
-63
-62
-60
-58
-62
-64
-64
-61
-62
-66
-69
-71
-68
-66
-67
-65
-65
-66
-66
-64
-65
-66
-67
-67
-66
-63
-65
-64
-63
-65
-62
-63
-62
-59
-61
-63
-65
-62
-62
-61
-59
-62
-61
-59
-57
-57
-57
-60
-62
-60
-59
-56
-62
-62
-59
-55
-55
-58
-60
-62
-60
-55
-56
-57
-60
-62
-60
-56
-57
-60
-61
-62
-60
-59
-58
-57
-59
-59
-55
-56
-56
-60
-61
-60
-58
-57
-56
-57
-58
-60
-58
-59
-58
-58
-59
-60
-60
-59
-58
-59
-58
-62
-60
-58
-57
-57
-61
-60
-60
-59
-56
-57
-61
-60
-59
-54
-52
-52
-54
-57
-53
-50
-49
-51
-54
-54
-50
-46
-38
-30
-27
-27
-31
-30
-30
-30
-32
-37
-42
-41
-41
-43
-45
-46
-44
-42
-46
-50
-58
-60
-59
-61
-61
-66
-67
-67
-68
-67
-66
-64
-63
-68
-68
-63
-63
-67
-69
-70
-70
-67
-67
-66
-69
-71
-71
-73
-67
-41
3
64
139
215
265
261
209
138
72
21
-4
-11
-19
-29
-37
-41
-42
-47
-54
-57
-58
-60
-61
-64
-63
-61
-62
-72
-85
-94
-99
-99
-95
-91
-90
-90
-91
-90
-89
-85
-84
-84
-84
-84
-83
-83
-81
-83
-87
-87
-82
-80
-82
-82
-84
-83
-82
-83
-83
-84
-84
-87
-87
-86
-88
-87
-86
-86
-84
-81
-80
-84
-87
-89
-83
-81
-82
-83
-84
-87
-82
-80
-78
-78
-81
-79
-74
-73
-72
-72
-72
-66
-64
-63
-65
-66
-64
-64
-56
-50
-47
-42
-42
-45
-38
-33
-34
-36
-39
-42
-40
-35
-32
-35
-35
-36
-34
-33
-32
-35
-38
-39
-38
-44
-51
-60
-68
-67
-64
-63
-67
-69
-70
-70
-72
-73
-73
-73
-71
-74
-74
-73
-73
-75
-77
-77
-74
-76
-78
-81
-80
-81
-81
-77
-75
-77
-79
-83
-79
-75
-73
-74
-79
-78
-79
-76
-75
-74
-78
-81
-77
-74
-72
-72
-74
-75
-77
-73
-72
-72
-71
-71
-69
-69
-68
-68
-71
-74
-72
-71
-70
-67
-68
-67
-67
-68
-68
-73
-70
-67
-67
-65
-68
-71
-75
-75
-69
-65
-65
-68
-73
-74
-75
-71
-73
-74
-79
-77
-72
-69
-65
-63
-62
-61
-51
-42
-46
-58
-72
-81
-88
-91
-88
-84
-80
-77
-72
-66
-59
-60
-69
-80
-82
-76
-73
-74
-75
-76
-70
-68
-68
-66
-66
-66
-64
-64
-65
-68
-68
-63
-59
-50
-41
-35
-39
-43
-43
-43
-43
-44
-47
-50
-50
-50
-49
-50
-53
-57
-59
-61
-62
-69
-74
-75
-73
-71
-70
-70
-72
-76
-74
-72
-72
-73
-75
-78
-78
-73
-71
-72
-76
-76
-76
-77
-79
-82
-89
-88
-73
-35
16
70
131
195
242
244
199
134
67
9
-21
-25
-33
-44
-48
-54
-59
-66
-72
-77
-80
-81
-81
-82
-85
-90
-96
-97
-93
-90
-89
-87
-87
-89
-88
-88
-92
-93
-95
-95
-94
-90
-90
-90
-90
-90
-87
-86
-89
-91
-93
-95
-93
-91
-92
-91
-95
-95
-94
-90
-87
-88
-88
-91
-90
-88
-83
-86
-88
-89
-87
-85
-84
-83
-85
-85
-84
-82
-81
-81
-81
-81
-79
-76
-74
-72
-74
-74
-71
-66
-63
-64
-64
-65
-62
-59
-58
-57
-57
-58
-55
-51
-48
-44
-43
-43
-38
-35
-35
-39
-40
-39
-31
-26
-24
-22
-22
-22
-21
-25
-29
-32
-36
-37
-37
-35
-33
-34
-41
-49
-52
-54
-54
-56
-57
-60
-59
-60
-60
-63
-64
-66
-61
-60
-64
-64
-63
-66
-64
-62
-64
-66
-68
-67
-66
-63
-62
-62
-66
-67
-65
-64
-61
-66
-66
-66
-63
-59
-58
-60
-60
-65
-60
-59
-57
-60
-61
-59
-59
-56
-53
-55
-60
-61
-63
-63
-60
-62
-61
-58
-56
-53
-59
-57
-62
-58
-55
-54
-55
-54
-56
-62
-60
-58
-59
-56
-58
-59
-56
-53
-54
-59
-61
-62
-61
-56
-57
-58
-59
-60
-59
-58
-56
-54
-56
-57
-56
-54
-57
-59
-59
-60
-59
-57
-56
-57
-58
-58
-55
-55
-54
-59
-64
-66
-63
-62
-60
-61
-61
-61
-60
-56
-56
-58
-59
-62
-58
-58
-55
-54
-55
-57
-56
-54
-53
-54
-56
-55
-50
-49
-52
-53
-53
-50
-42
-35
-29
-24
-21
-23
-23
-26
-24
-27
-27
-33
-33
-36
-37
-41
-39
-42
-41
-42
-45
-48
-54
-58
-60
-61
-61
-64
-65
-67
-63
-62
-63
-64
-64
-68
-63
-62
-62
-65
-65
-67
-65
-60
-60
-63
-67
-67
-68
-71
-76
-77
-74
-60
-26
14
58
109
166
212
229
203
147
85
33
-8
-29
-31
-34
-37
-42
-49
-56
-58
-63
-69
-74
-79
-87
-86
-86
-84
-84
-89
-88
-87
-85
-86
-88
-88
-86
-86
-87
-88
-91
-91
-89
-87
-85
-84
-84
-86
-88
-83
-83
-86
-87
-88
-87
-86
-83
-84
-84
-86
-84
-82
-81
-82
-82
-85
-82
-78
-76
-77
-81
-83
-83
-82
-81
-80
-82
-84
-82
-82
-79
-79
-81
-80
-78
-76
-75
-75
-76
-75
-74
-73
-71
-70
-70
-71
-70
-67
-63
-61
-60
-60
-56
-53
-51
-53
-52
-53
-54
-49
-45
-47
-43
-43
-41
-38
-35
-35
-36
-35
-34
-30
-28
-29
-30
-32
-30
-34
-34
-35
-42
-48
-50
-50
-48
-49
-50
-55
-52
-55
-58
-61
-63
-66
-64
-66
-65
-61
-63
-65
-65
-65
-66
-64
-68
-73
-70
-71
-71
-70
-71
-72
-71
-65
-61
-64
-65
-68
-68
-67
-64
-66
-69
-69
-66
-62
-63
-65
-67
-69
-67
-64
-65
-67
-69
-70
-67
-67
-63
-64
-63
-65
-62
-62
-61
-61
-62
-66
-65
-63
-59
-59
-60
-62
-59
-58
-58
-63
-63
-62
-56
-56
-56
-61
-62
-65
-67
-67
-63
-64
-63
-64
-59
-57
-57
-58
-61
-62
-62
-59
-61
-62
-64
-64
-65
-64
-65
-63
-62
-62
-66
-63
-66
-63
-66
-65
-64
-61
-63
-63
-63
-67
-65
-65
-64
-62
-63
-64
-64
-62
-60
-59
-64
-67
-61
-55
-54
-54
-56
-61
-61
-55
-55
-55
-57
-58
-54
-43
-40
-37
-31
-27
-29
-35
-39
-43
-46
-49
-48
-48
-46
-46
-48
-51
-51
-54
-56
-57
-60
-63
-68
-68
-68
-66
-68
-72
-70
-67
-64
-69
-72
-74
-75
-77
-74
-71
-72
-75
-77
-72
-66
-66
-69
-77
-80
-83
-83
-84
-77
-56
-16
31
85
149
206
233
217
170
114
60
6
-29
-39
-44
-53
-61
-66
-67
-71
-76
-84
-89
-90
-92
-89
-87
-90
-90
-93
-95
-95
-95
-96
-94
-92
-93
-92
-88
-86
-86
-88
-90
-93
-96
-97
-97
-95
-96
-95
-93
-88
-90
-91
-91
-93
-90
-90
-93
-97
-97
-95
-94
-93
-93
-94
-94
-91
-90
-88
-88
-92
-95
-89
-89
-84
-84
-84
-86
-87
-84
-82
-82
-81
-81
-79
-77
-75
-73
-76
-77
-73
-70
-69
-67
-67
-66
-62
-61
-57
-55
-55
-56
-53
-51
-47
-40
-44
-46
-46
-45
-40
-38
-37
-40
-39
-37
-35
-36
-36
-37
-38
-35
-37
-40
-45
-49
-50
-49
-47
-49
-55
-58
-60
-59
-61
-61
-63
-67
-67
-68
-65
-67
-71
-73
-73
-71
-68
-71
-70
-72
-72
-70
-73
-74
-74
-74
-73
-70
-69
-71
-75
-77
-78
-73
-69
-68
-70
-72
-70
-69
-66
-68
-69
-73
-70
-66
-63
-65
-66
-69
-67
-66
-64
-63
-67
-66
-67
-64
-64
-63
-64
-64
-65
-65
-65
-64
-65
-67
-65
-64
-62
-63
-64
-68
-64
-64
-61
-62
-63
-68
-69
-64
-66
-63
-63
-66
-66
-66
-67
-67
-64
-66
-65
-64
-63
-65
-64
-68
-66
-66
-64
-66
-69
-67
-68
-65
-64
-63
-62
-66
-65
-64
-64
-65
-66
-69
-68
-65
-64
-67
-66
-69
-67
-65
-62
-63
-64
-67
-68
-64
-64
-64
-62
-62
-60
-60
-62
-63
-65
-64
-62
-57
-54
-57
-57
-60
-58
-52
-47
-43
-38
-34
-28
-27
-28
-34
-33
-35
-37
-39
-40
-41
-45
-45
-44
-43
-45
-47
-52
-56
-56
-59
-59
-61
-63
-65
-66
-63
-61
-60
-63
-67
-68
-66
-63
-64
-67
-68
-69
-68
-65
-67
-71
-73
-75
-77
-78
-79
-72
-49
-8
38
96
162
219
238
207
147
90
36
-3
-19
-22
-27
-33
-38
-45
-49
-54
-61
-65
-73
-76
-79
-78
-77
-75
-77
-79
-82
-81
-80
-79
-80
-84
-84
-82
-81
-81
-81
-81
-80
-78
-77
-80
-81
-80
-83
-80
-84
-77
-78
-77
-80
-77
-78
-79
-82
-83
-83
-83
-79
-78
-76
-76
-79
-78
-75
-74
-73
-78
-80
-79
-76
-73
-73
-73
-74
-71
-69
-69
-68
-69
-70
-67
-64
-61
-59
-59
-62
-56
-53
-49
-47
-49
-50
-48
-41
-38
-36
-33
-31
-32
-29
-28
-29
-27
-31
-31
-25
-23
-21
-21
-23
-23
-20
-21
-26
-29
-35
-34
-35
-34
-38
-43
-44
-46
-47
-48
-52
-56
-58
-60
-56
-57
-60
-62
-66
-67
-64
-62
-65
-65
-68
-68
-65
-62
-62
-66
-69
-68
-67
-67
-63
-65
-67
-68
-65
-60
-60
-64
-67
-64
-61
-61
-62
-63
-64
-63
-61
-60
-58
-59
-61
-57
-56
-56
-59
-63
-65
-63
-59
-57
-54
-56
-60
-59
-56
-54
-54
-57
-60
-59
-56
-55
-55
-56
-58
-55
-54
-53
-55
-58
-59
-59
-57
-54
-56
-58
-60
-57
-55
-55
-55
-57
-57
-59
-57
-55
-56
-56
-60
-58
-58
-56
-55
-58
-61
-55
-53
-52
-52
-55
-59
-57
-56
-53
-55
-59
-60
-57
-57
-55
-55
-56
-57
-57
-56
-58
-54
-57
-57
-57
-56
-55
-54
-57
-58
-56
-56
-52
-51
-54
-56
-54
-51
-50
-50
-50
-49
-49
-45
-40
-36
-34
-30
-24
-18
-18
-21
-24
-29
-31
-33
-32
-32
-32
-33
-32
-33
-38
-41
-46
-50
-52
-57
-54
-53
-53
-54
-52
-51
-53
-53
-58
-60
-58
-56
-55
-54
-56
-57
-59
-58
-55
-55
-59
-65
-68
-71
-64
-52
-26
6
57
120
190
238
243
199
134
75
34
11
4
1
-5
-10
-14
-21
-29
-42
-49
-55
-56
-57
-60
-64
-64
-66
-63
-64
-66
-69
-68
-67
-69
-68
-68
-71
-70
-71
-69
-70
-73
-72
-73
-69
-69
-68
-70
-73
-70
-70
-66
-66
-68
-70
-69
-70
-65
-64
-63
-69
-70
-68
-66
-66
-67
-67
-66
-66
-63
-63
-63
-63
-63
-59
-58
-61
-62
-63
-58
-54
-51
-52
-54
-58
-57
-52
-50
-50
-47
-49
-45
-43
-37
-37
-38
-40
-42
-38
-34
-35
-31
-30
-27
-24
-20
-17
-17
-18
-18
-15
-12
-10
-13
-17
-14
-11
-14
-15
-18
-21
-23
-23
-25
-26
-31
-34
-33
-35
-35
-39
-42
-45
-47
-46
-48
-44
-46
-47
-49
-46
-47
-47
-49
-53
-52
-50
-49
-52
-55
-57
-55
-52
-51
-50
-50
-50
-48
-48
-49
-53
-55
-57
-55
-53
-52
-52
-52
-53
-51
-50
-48
-50
-50
-49
-49
-47
-45
-44
-47
-52
-49
-47
-46
-45
-46
-47
-48
-45
-43
-44
-44
-48
-48
-50
-48
-50
-49
-51
-47
-48
-48
-48
-47
-48
-45
-43
-45
-47
-49
-51
-49
-46
-45
-43
-47
-48
-51
-49
-48
-49
-48
-50
-50
-48
-49
-49
-48
-50
-50
-50
-48
-47
-48
-48
-48
-47
-45
-43
-48
-47
-50
-49
-46
-47
-47
-49
-51
-48
-48
-43
-45
-49
-49
-47
-45
-45
-47
-50
-49
-48
-46
-43
-45
-44
-44
-42
-37
-36
-38
-38
-39
-39
-35
-35
-31
-28
-20
-12
-8
-12
-16
-19
-18
-17
-18
-22
-25
-25
-27
-27
-25
-28
-32
-35
-37
-41
-45
-46
-46
-49
-50
-51
-48
-48
-49
-53
-50
-50
-49
-49
-54
-56
-51
-54
-50
-51
-52
-53
-55
-58
-61
-65
-66
-63
-45
-9
37
93
159
217
231
199
141
79
30
10
11
7
0
-12
-23
-34
-45
-51
-54
-55
-61
-66
-70
-69
-69
-69
-69
-72
-71
-72
-68
-69
-70
-71
-75
-73
-71
-71
-72
-76
-76
-69
-69
-71
-72
-76
-74
-71
-69
-72
-73
-72
-72
-71
-67
-70
-73
-72
-72
-68
-66
-68
-70
-74
-72
-68
-63
-64
-67
-69
-68
-64
-63
-59
-61
-62
-62
-59
-58
-58
-57
-59
-57
-57
-53
-50
-46
-46
-44
-42
-39
-42
-40
-41
-38
-35
-33
-30
-29
-30
-29
-26
-20
-20
-21
-21
-21
-20
-17
-16
-18
-20
-23
-22
-21
-25
-28
-32
-35
-34
-35
-36
-36
-40
-44
-45
-44
-44
-44
-47
-51
-51
-51
-51
-52
-51
-55
-58
-58
-57
-56
-59
-59
-57
-53
-55
-55
-58
-61
-60
-53
-48
-52
-53
-55
-52
-51
-53
-52
-51
-53
-52
-47
-48
-49
-53
-50
-49
-49
-49
-49
-51
-49
-47
-45
-46
-48
-48
-49
-48
-46
-48
-47
-46
-51
-51
-44
-45
-47
-49
-51
-53
-49
-49
-49
-50
-48
-49
-51
-53
-50
-50
-51
-49
-48
-49
-49
-51
-53
-48
-46
-46
-49
-50
-51
-50
-47
-51
-52
-53
-55
-53
-52
-50
-51
-54
-58
-53
-51
-50
-54
-54
-53
-49
-48
-50
-53
-55
-56
-53
-50
-49
-49
-53
-54
-51
-49
-50
-52
-56
-57
-55
-53
-54
-53
-57
-53
-48
-49
-52
-55
-55
-56
-53
-51
-51
-48
-44
-38
-28
-20
-21
-24
-29
-32
-31
-32
-37
-38
-40
-42
-39
-36
-37
-39
-44
-50
-53
-52
-57
-60
-64
-66
-64
-61
-61
-61
-63
-65
-67
-67
-66
-68
-68
-72
-69
-69
-68
-71
-70
-71
-71
-72
-77
-77
-79
-71
-51
-15
21
67
127
179
190
151
86
30
-9
-32
-37
-37
-45
-48
-51
-61
-64
-72
-80
-84
-87
-88
-89
-89
-91
-97
-101
-100
-94
-93
-92
-96
-96
-95
-93
-92
-95
-98
-101
-101
-99
-96
-95
-102
-106
-104
-101
-100
-100
-102
-104
-103
-104
-107
-105
-104
-104
-105
-101
-97
-102
-110
-113
-110
-105
-100
-103
-105
-105
-104
-101
-96
-96
-99
-101
-100
-98
-95
-97
-100
-101
-97
-96
-94
-92
-92
-92
-90
-87
-85
-84
-81
-81
-77
-73
-71
-72
-72
-73
-73
-69
-64
-63
-66
-67
-70
-67
-61
-59
-59
-62
-62
-64
-64
-69
-69
-73
-74
-74
-75
-76
-78
-80
-85
-85
-84
-86
-87
-87
-89
-89
-90
-91
-93
-96
-97
-97
-94
-93
-95
-97
-97
-95
-94
-95
-93
-97
-97
-94
-91
-92
-93
-93
-95
-92
-88
-87
-90
-90
-88
-90
-87
-91
-88
-89
-88
-85
-84
-83
-84
-83
-81
-80
-79
-78
-81
-81
-80
-76
-74
-77
-74
-75
-75
-73
-70
-71
-69
-72
-73
-72
-68
-69
-68
-69
-72
-70
-69
-69
-67
-70
-71
-67
-67
-65
-64
-66
-65
-63
-61
-62
-62
-68
-70
-65
-63
-63
-68
-66
-66
-62
-62
-63
-66
-65
-63
-60
-60
-58
-61
-64
-64
-60
-56
-57
-59
-59
-57
-57
-55
-57
-59
-58
-59
-55
-53
-53
-52
-56
-53
-52
-50
-48
-48
-51
-52
-49
-44
-37
-33
-25
-22
-18
-19
-23
-24
-25
-25
-26
-26
-29
-32
-35
-37
-34
-29
-32
-36
-41
-45
-45
-44
-46
-45
-50
-53
-51
-49
-51
-53
-55
-51
-51
-48
-48
-51
-55
-54
-52
-48
-50
-52
-53
-51
-51
-57
-64
-70
-73
-64
-39
-3
44
98
162
220
250
231
178
121
69
26
9
8
2
-8
-17
-19
-23
-30
-38
-44
-50
-54
-52
-52
-57
-60
-66
-68
-65
-62
-66
-65
-68
-66
-65
-64
-64
-65
-65
-65
-63
-64
-65
-64
-67
-67
-66
-64
-63
-66
-67
-69
-64
-61
-64
-66
-68
-67
-67
-62
-62
-64
-67
-66
-63
-61
-60
-61
-63
-63
-62
-59
-56
-56
-58
-57
-53
-51
-52
-52
-53
-52
-49
-46
-46
-47
-45
-43
-39
-33
-34
-36
-38
-40
-36
-28
-24
-22
-23
-23
-19
-17
-16
-14
-13
-14
-14
-14
-13
-14
-12
-10
-8
-8
-14
-15
-16
-14
-15
-18
-25
-28
-32
-36
-34
-34
-33
-37
-40
-42
-41
-42
-44
-45
-47
-49
-49
-50
-49
-51
-54
-55
-53
-51
-53
-54
-56
-59
-56
-55
-55
-54
-54
-57
-54
-52
-53
-55
-57
-55
-50
-49
-49
-50
-52
-54
-52
-50
-52
-53
-54
-52
-51
-50
-51
-52
-52
-51
-47
-47
-47
-48
-49
-53
-49
-49
-47
-48
-49
-53
-50
-48
-50
-48
-48
-48
-45
-43
-43
-45
-48
-51
-46
-42
-42
-46
-49
-48
-47
-44
-45
-46
-49
-52
-49
-48
-47
-48
-49
-48
-46
-45
-44
-46
-51
-48
-46
-44
-48
-50
-49
-51
-50
-48
-47
-49
-49
-50
-49
-46
-48
-49
-50
-51
-49
-43
-46
-47
-50
-49
-48
-46
-47
-50
-55
-54
-53
-47
-48
-49
-49
-47
-46
-45
-46
-50
-48
-47
-46
-47
-45
-45
-45
-41
-33
-23
-18
-17
-20
-25
-25
-24
-24
-26
-30
-32
-31
-30
-31
-32
-35
-39
-38
-37
-38
-45
-50
-52
-52
-51
-53
-52
-53
-54
-55
-56
-57
-57
-58
-59
-57
-56
-57
-57
-60
-63
-60
-56
-56
-61
-65
-72
-77
-80
-81
-68
-42
-3
46
99
162
214
236
208
155
101
53
15
2
0
-5
-12
-20
-24
-33
-45
-53
-58
-65
-72
-75
-75
-77
-77
-78
-78
-81
-83
-84
-80
-79
-82
-82
-84
-82
-80
-79
-84
-84
-84
-79
-80
-78
-80
-82
-80
-78
-76
-74
-78
-81
-82
-83
-79
-80
-82
-79
-82
-80
-81
-81
-81
-81
-81
-78
-73
-73
-76
-74
-78
-80
-74
-75
-74
-73
-74
-74
-74
-68
-69
-68
-67
-64
-62
-61
-59
-59
-58
-57
-54
-51
-52
-52
-52
-50
-47
-45
-45
-42
-39
-34
-31
-30
-30
-32
-31
-29
-28
-25
-25
-25
-25
-26
-25
-22
-24
-29
-32
-29
-32
-33
-39
-41
-44
-44
-46
-45
-47
-51
-54
-57
-53
-57
-60
-63
-62
-62
-61
-62
-62
-66
-69
-66
-65
-66
-65
-66
-65
-64
-63
-62
-65
-65
-66
-62
-62
-62
-66
-66
-67
-66
-63
-64
-65
-67
-67
-64
-63
-61
-63
-64
-66
-66
-62
-60
-61
-64
-64
-62
-58
-57
-59
-63
-65
-64
-61
-61
-62
-64
-63
-64
-60
-57
-59
-62
-65
-64
-61
-59
-59
-61
-62
-62
-61
-63
-66
-66
-64
-61
-62
-61
-63
-68
-69
-62
-62
-62
-62
-64
-66
-63
-63
-62
-65
-64
-66
-68
-66
-65
-66
-67
-69
-66
-65
-67
-64
-69
-68
-65
-61
-62
-64
-67
-69
-68
-67
-62
-64
-67
-69
-68
-64
-63
-64
-64
-66
-63
-62
-60
-61
-61
-61
-58
-54
-54
-56
-55
-56
-51
-49
-48
-47
-40
-37
-29
-22
-21
-23
-28
-35
-37
-35
-36
-39
-43
-44
-44
-43
-44
-47
-50
-53
-53
-53
-55
-65
-71
-71
-69
-64
-66
-73
-77
-77
-74
-73
-72
-73
-74
-77
-77
-79
-81
-82
-80
-79
-81
-79
-81
-87
-88
-87
-87
-85
-86
-81
-57
-22
15
63
124
173
188
157
108
60
18
-20
-36
-35
-36
-42
-47
-55
-64
-74
-80
-86
-95
-100
-106
-107
-103
-101
-103
-107
-112
-110
-107
-103
-106
-109
-111
-111
-108
-109
-107
-107
-108
-111
-108
-108
-104
-105
-110
-111
-110
-106
-104
-101
-104
-110
-112
-109
-106
-107
-107
-110
-111
-108
-108
-108
-109
-110
-107
-106
-105
-101
-101
-105
-111
-108
-102
-99
-105
-104
-103
-100
-97
-98
-99
-99
-97
-94
-93
-95
-94
-94
-89
-87
-89
-92
-93
-88
-85
-80
-79
-79
-77
-80
-75
-72
-69
-69
-70
-70
-68
-65
-63
-63
-61
-64
-61
-60
-56
-56
-58
-61
-59
-58
-59
-62
-64
-66
-65
-66
-69
-73
-77
-80
-78
-77
-77
-79
-83
-86
-87
-86
-88
-86
-89
-91
-88
-85
-88
-91
-93
-94
-93
-89
-91
-90
-90
-90
-85
-86
-86
-85
-88
-90
-89
-88
-85
-84
-82
-84
-86
-82
-82
-81
-80
-81
-76
-77
-78
-78
-77
-77
-73
-73
-73
-76
-74
-73
-72
-73
-72
-73
-73
-72
-73
-69
-69
-72
-72
-71
-71
-69
-66
-66
-67
-69
-68
-67
-70
-71
-72
-70
-67
-69
-69
-71
-72
-72
-69
-69
-68
-70
-71
-72
-71
-68
-69
-68
-71
-69
-69
-65
-68
-70
-73
-71
-69
-67
-65
-67
-70
-73
-71
-68
-66
-66
-67
-69
-72
-69
-66
-65
-70
-69
-66
-64
-67
-65
-65
-66
-63
-61
-61
-59
-61
-61
-58
-56
-57
-57
-55
-50
-45
-40
-36
-27
-26
-32
-32
-34
-31
-33
-36
-40
-41
-40
-40
-42
-41
-42
-44
-45
-46
-50
-54
-58
-60
-59
-58
-59
-61
-63
-62
-61
-60
-62
-64
-64
-66
-58
-61
-63
-64
-64
-60
-60
-59
-60
-65
-70
-73
-77
-78
-72
-59
-24
20
67
126
188
227
222
180
126
77
32
4
-3
-6
-15
-21
-26
-34
-41
-44
-51
-57
-65
-62
-65
-66
-64
-67
-66
-68
-72
-70
-69
-67
-67
-67
-66
-67
-67
-67
-67
-68
-68
-71
-70
-66
-66
-65
-66
-68
-65
-65
-65
-69
-72
-68
-65
-64
-64
-64
-64
-65
-64
-63
-62
-63
-66
-65
-61
-59
-60
-63
-63
-59
-57
-58
-59
-58
-59
-56
-50
-50
-50
-53
-52
-47
-46
-44
-41
-43
-41
-40
-37
-36
-33
-31
-32
-27
-28
-26
-24
-23
-24
-18
-15
-12
-10
-14
-13
-11
-9
-6
-6
-7
-8
-6
-6
-6
-7
-13
-13
-12
-9
-10
-15
-20
-25
-25
-25
-22
-23
-27
-33
-40
-45
-49
-47
-45
-44
-45
-45
-44
-45
-43
-46
-44
-43
-43
-45
-45
-45
-44
-44
-45
-46
-46
-46
-45
-44
-42
-44
-44
-45
-40
-39
-36
-38
-43
-44
-43
-39
-40
-39
-40
-39
-41
-40
-38
-40
-40
-42
-41
-41
-40
-39
-36
-39
-40
-36
-33
-35
-36
-40
-40
-39
-39
-39
-43
-43
-41
-41
-41
-42
-42
-44
-42
-42
-40
-40
-43
-46
-44
-43
-45
-43
-43
-44
-41
-39
-39
-41
-44
-46
-43
-40
-41
-44
-43
-43
-41
-40
-41
-40
-41
-45
-44
-44
-43
-44
-46
-48
-45
-41
-41
-39
-39
-40
-39
-38
-34
-33
-34
-36
-33
-31
-30
-28
-24
-23
-12
-6
-6
-12
-17
-16
-13
-15
-18
-21
-22
-23
-22
-23
-24
-24
-29
-35
-36
-41
-42
-43
-43
-44
-43
-46
-46
-46
-50
-51
-51
-49
-47
-47
-49
-53
-53
-52
-50
-50
-53
-61
-65
-69
-66
-56
-30
10
63
126
196
242
240
184
121
71
31
15
14
10
3
-3
-13
-23
-34
-48
-53
-58
-58
-58
-60
-65
-64
-63
-63
-63
-66
-68
-68
-68
-66
-67
-65
-69
-67
-67
-68
-67
-69
-69
-65
-61
-62
-61
-62
-62
-64
-66
-67
-66
-63
-67
-69
-70
-68
-68
-68
-71
-69
-68
-67
-63
-66
-67
-65
-66
-62
-61
-61
-61
-63
-60
-57
-58
-58
-58
-54
-52
-51
-52
-53
-51
-48
-42
-43
-42
-42
-41
-36
-32
-29
-27
-33
-30
-25
-23
-16
-16
-17
-19
-19
-13
-12
-10
-9
-10
-7
-6
-8
-8
-10
-13
-15
-14
-12
-14
-17
-21
-23
-25
-24
-28
-35
-36
-35
-35
-33
-38
-41
-45
-45
-43
-43
-45
-44
-47
-47
-47
-48
-47
-47
-49
-47
-46
-45
-48
-50
-50
-48
-46
-47
-49
-48
-48
-46
-43
-45
-44
-46
-47
-47
-43
-41
-42
-42
-43
-44
-44
-43
-45
-46
-47
-46
-46
-44
-45
-45
-47
-45
-43
-43
-44
-48
-48
-46
-44
-44
-45
-44
-46
-46
-45
-46
-45
-46
-47
-45
-46
-45
-45
-43
-44
-44
-44
-43
-45
-43
-44
-44
-42
-41
-41
-40
-42
-44
-44
-43
-46
-48
-50
-48
-45
-44
-43
-44
-49
-49
-46
-47
-47
-47
-48
-45
-41
-42
-49
-48
-50
-45
-42
-41
-44
-44
-48
-45
-40
-37
-40
-41
-39
-33
-27
-21
-15
-13
-17
-21
-20
-19
-23
-25
-29
-30
-30
-30
-31
-32
-36
-40
-42
-45
-45
-46
-48
-51
-52
-53
-53
-56
-57
-57
-57
-55
-58
-59
-60
-56
-57
-55
-56
-57
-60
-61
-64
-69
-72
-73
-64
-29
9
56
116
184
232
236
191
130
72
27
5
5
1
-3
-11
-20
-30
-37
-45
-49
-60
-66
-68
-70
-69
-66
-68
-70
-74
-74
-74
-70
-73
-73
-75
-77
-75
-71
-72
-75
-78
-78
-76
-73
-75
-74
-76
-73
-75
-72
-73
-75
-76
-74
-74
-73
-76
-75
-77
-74
-73
-71
-73
-73
-79
-75
-74
-69
-70
-71
-74
-71
-70
-67
-67
-69
-69
-66
-66
-64
-65
-62
-62
-60
-58
-55
-54
-55
-56
-52
-50
-45
-46
-46
-46
-42
-39
-36
-31
-29
-29
-28
-29
-29
-28
-26
-26
-26
-23
-21
-22
-21
-25
-26
-23
-22
-21
-24
-28
-32
-32
-32
-35
-41
-43
-44
-43
-47
-50
-50
-57
-56
-54
-53
-55
-57
-58
-58
-58
-57
-59
-61
-63
-63
-61
-58
-58
-60
-62
-62
-59
-59
-60
-61
-62
-60
-60
-58
-58
-61
-62
-62
-59
-56
-57
-57
-61
-62
-60
-57
-63
-63
-63
-63
-64
-60
-58
-59
-62
-61
-61
-58
-61
-62
-63
-63
-63
-59
-58
-58
-61
-62
-62
-61
-61
-62
-65
-65
-62
-60
-59
-61
-65
-64
-60
-60
-60
-63
-62
-63
-62
-60
-59
-62
-66
-64
-62
-60
-61
-64
-63
-63
-64
-61
-59
-61
-64
-63
-62
-60
-59
-62
-67
-66
-65
-63
-64
-66
-68
-68
-63
-60
-62
-62
-63
-61
-61
-60
-61
-60
-62
-58
-55
-55
-56
-57
-61
-59
-55
-50
-45
-42
-35
-31
-30
-32
-34
-37
-38
-40
-40
-41
-42
-46
-46
-47
-47
-48
-52
-52
-55
-59
-63
-64
-67
-68
-70
-68
-66
-67
-68
-69
-73
-72
-71
-71
-71
-77
-76
-78
-74
-72
-72
-74
-74
-77
-79
-84
-88
-91
-89
-65
-28
17
69
131
187
212
191
136
76
24
-9
-16
-17
-22
-30
-37
-47
-57
-64
-72
-78
-83
-87
-89
-87
-87
-91
-93
-94
-94
-94
-95
-96
-94
-97
-97
-96
-94
-94
-95
-94
-95
-94
-94
-93
-95
-96
-97
-97
-93
-95
-98
-98
-98
-97
-94
-87
-91
-92
-95
-94
-93
-95
-97
-98
-96
-93
-90
-93
-97
-98
-91
-91
-88
-88
-90
-91
-86
-88
-88
-84
-87
-87
-86
-81
-79
-79
-79
-81
-77
-75
-71
-72
-71
-72
-69
-65
-62
-61
-60
-60
-58
-54
-52
-50
-51
-52
-51
-47
-43
-43
-45
-44
-44
-41
-41
-40
-42
-44
-42
-44
-45
-48
-49
-53
-55
-55
-57
-60
-61
-67
-67
-67
-67
-70
-73
-74
-76
-73
-74
-75
-80
-81
-81
-81
-79
-78
-78
-81
-79
-80
-76
-77
-79
-82
-82
-78
-73
-76
-79
-80
-79
-76
-74
-77
-78
-82
-81
-77
-75
-75
-77
-83
-79
-78
-76
-74
-73
-78
-75
-75
-74
-75
-76
-76
-75
-73
-73
-74
-76
-75
-77
-74
-73
-74
-76
-80
-79
-77
-75
-76
-79
-80
-78
-75
-74
-77
-75
-77
-76
-74
-73
-75
-79
-80
-80
-80
-77
-76
-74
-77
-78
-76
-76
-77
-79
-82
-79
-79
-77
-81
-81
-82
-80
-77
-76
-75
-77
-80
-79
-79
-78
-78
-79
-81
-81
-78
-75
-75
-79
-81
-80
-79
-78
-79
-81
-83
-82
-80
-77
-76
-76
-77
-77
-74
-70
-67
-65
-62
-58
-54
-46
-44
-40
-42
-42
-45
-43
-44
-48
-51
-51
-51
-50
-53
-57
-57
-58
-60
-61
-64
-69
-73
-77
-76
-78
-78
-80
-80
-81
-77
-76
-77
-80
-84
-80
-81
-80
-80
-83
-84
-85
-85
-85
-87
-93
-97
-101
-98
-77
-43
-1
47
110
168
190
168
113
60
15
-17
-28
-29
-38
-49
-54
-58
-61
-65
-73
-85
-92
-93
-90
-95
-98
-104
-104
-104
-102
-102
-104
-105
-107
-105
-104
-105
-106
-107
-105
-103
-102
-105
-105
-106
-102
-100
-96
-98
-103
-103
-100
-98
-96
-95
-98
-101
-101
-98
-96
-97
-99
-101
-100
-100
-96
-95
-97
-96
-98
-93
-91
-93
-96
-95
-95
-89
-88
-87
-90
-90
-86
-83
-82
-84
-86
-85
-81
-80
-77
-75
-73
-75
-75
-74
-68
-65
-64
-66
-62
-61
-58
-57
-57
-56
-54
-51
-46
-44
-43
-45
-45
-42
-41
-39
-40
-40
-41
-44
-40
-39
-43
-49
-49
-50
-46
-50
-52
-54
-57
-57
-55
-60
-64
-71
-70
-68
-69
-70
-71
-77
-76
-75
-75
-75
-78
-80
-77
-77
-76
-75
-81
-82
-81
-78
-77
-77
-78
-80
-81
-79
-74
-74
-75
-78
-79
-78
-76
-76
-75
-79
-76
-75
-75
-75
-77
-78
-75
-74
-71
-72
-72
-74
-74
-70
-67
-70
-71
-72
-71
-71
-69
-68
-71
-73
-74
-71
-71
-71
-75
-77
-75
-73
-73
-72
-75
-74
-74
-74
-73
-70
-73
-75
-75
-74
-72
-74
-75
-73
-72
-71
-72
-71
-73
-73
-74
-71
-72
-72
-72
-74
-72
-72
-72
-74
-75
-75
-76
-71
-73
-72
-72
-72
-74
-75
-74
-71
-73
-75
-77
-75
-75
-73
-75
-76
-74
-73
-72
-71
-72
-74
-73
-72
-69
-69
-69
-71
-69
-66
-66
-65
-62
-59
-49
-40
-37
-35
-38
-43
-42
-39
-41
-46
-49
-49
-50
-49
-48
-50
-54
-59
-64
-66
-67
-67
-69
-73
-73
-70
-71
-72
-74
-76
-77
-76
-77
-75
-77
-78
-79
-78
-76
-76
-79
-83
-78
-78
-81
-85
-92
-95
-89
-70
-39
-2
42
99
161
198
180
123
66
19
-8
-18
-18
-25
-33
-38
-46
-52
-59
-73
-81
-85
-87
-90
-91
-92
-93
-96
-99
-99
-97
-97
-99
-100
-101
-99
-98
-96
-97
-99
-102
-99
-99
-98
-100
-101
-101
-98
-100
-101
-99
-100
-100
-98
-96
-95
-97
-99
-98
-98
-98
-98
-101
-100
-100
-99
-97
-95
-95
-99
-98
-94
-93
-91
-95
-94
-93
-90
-87
-86
-88
-91
-88
-85
-83
-84
-86
-82
-79
-77
-72
-74
-73
-75
-70
-69
-64
-62
-60
-61
-61
-56
-54
-52
-53
-52
-52
-49
-45
-43
-43
-43
-44
-42
-40
-39
-43
-43
-43
-45
-44
-47
-49
-50
-52
-55
-56
-56
-60
-62
-64
-63
-66
-68
-70
-73
-70
-77
-72
-74
-76
-75
-78
-76
-78
-78
-78
-80
-79
-80
-77
-79
-78
-80
-79
-77
-74
-76
-79
-80
-79
-75
-75
-75
-77
-79
-77
-76
-74
-77
-79
-79
-78
-77
-71
-72
-72
-76
-78
-76
-73
-73
-75
-77
-78
-75
-72
-72
-75
-75
-74
-74
-74
-78
-77
-77
-76
-73
-71
-72
-75
-75
-75
-74
-72
-74
-74
-76
-76
-74
-69
-74
-73
-75
-73
-73
-72
-74
-74
-74
-74
-74
-71
-70
-73
-76
-74
-71
-69
-72
-73
-76
-77
-75
-72
-72
-72
-74
-75
-74
-71
-71
-71
-75
-76
-72
-70
-72
-74
-75
-77
-73
-70
-70
-70
-73
-76
-73
-71
-68
-69
-69
-70
-67
-65
-63
-65
-67
-64
-58
-48
-41
-37
-39
-42
-45
-39
-43
-48
-50
-52
-49
-48
-53
-58
-60
-62
-60
-61
-70
-74
-77
-77
-77
-77
-80
-82
-81
-81
-81
-79
-82
-85
-85
-89
-86
-84
-90
-89
-88
-88
-86
-85
-87
-90
-94
-100
-101
-97
-85
-57
-16
32
96
156
180
155
92
38
-9
-35
-48
-55
-65
-64
-63
-66
-76
-82
-92
-98
-101
-100
-100
-100
-102
-103
-104
-104
-106
-109
-109
-108
-107
-105
-103
-104
-107
-109
-107
-104
-106
-107
-108
-107
-104
-103
-108
-106
-109
-109
-106
-101
-104
-110
-111
-106
-102
-101
-104
-105
-104
-102
-102
-103
-102
-104
-104
-103
-101
-98
-97
-99
-100
-101
-98
-96
-97
-99
-96
-96
-94
-91
-88
-90
-91
-91
-87
-81
-82
-82
-81
-79
-77
-73
-74
-73
-72
-71
-67
-63
-63
-64
-64
-64
-57
-53
-53
-55
-54
-52
-50
-47
-51
-51
-52
-53
-54
-51
-56
-53
-55
-60
-62
-62
-62
-63
-67
-70
-72
-70
-73
-74
-76
-78
-79
-80
-82
-84
-84
-84
-84
-82
-81
-81
-83
-85
-80
-77
-80
-83
-83
-82
-80
-80
-83
-82
-83
-82
-83
-80
-83
-84
-84
-83
-81
-78
-77
-80
-81
-83
-81
-82
-83
-85
-82
-80
-76
-73
-77
-78
-82
-82
-79
-78
-80
-81
-79
-79
-78
-78
-81
-82
-80
-80
-79
-81
-85
-86
-82
-82
-82
-81
-83
-83
-84
-86
-86
-81
-80
-80
-83
-82
-79
-79
-79
-82
-81
-83
-82
-82
-82
-86
-82
-82
-80
-80
-80
-82
-82
-83
-82
-80
-80
-82
-84
-87
-83
-81
-78
-78
-83
-85
-82
-77
-78
-79
-78
-79
-75
-74
-75
-73
-71
-72
-69
-63
-59
-59
-51
-48
-45
-46
-49
-51
-53
-55
-56
-57
-60
-63
-66
-66
-63
-62
-68
-67
-71
-76
-77
-76
-77
-82
-85
-88
-86
-82
-81
-81
-84
-88
-86
-82
-84
-86
-86
-85
-82
-81
-85
-87
-85
-86
-87
-93
-97
-99
-90
-62
-16
41
102
171
220
221
175
115
50
-6
-35
-49
-59
-71
-78
-78
-80
-84
-86
-91
-95
-101
-104
-101
-100
-101
-102
-103
-106
-106
-104
-100
-102
-102
-107
-105
-105
-102
-103
-106
-106
-106
-103
-102
-101
-100
-102
-103
-100
-98
-96
-100
-100
-101
-98
-96
-96
-99
-99
-97
-97
-94
-95
-93
-94
-94
-93
-90
-90
-90
-93
-94
-91
-86
-85
-86
-85
-85
-84
-80
-78
-80
-79
-79
-76
-71
-68
-67
-67
-67
-62
-60
-57
-55
-54
-55
-52
-47
-45
-45
-44
-44
-41
-36
-33
-36
-38
-40
-38
-34
-34
-34
-36
-41
-40
-40
-43
-45
-45
-48
-49
-49
-53
-58
-60
-62
-61
-59
-61
-63
-67
-70
-68
-65
-69
-69
-73
-73
-70
-68
-69
-71
-73
-76
-72
-70
-71
-72
-70
-72
-71
-69
-68
-69
-69
-71
-65
-66
-66
-67
-67
-66
-67
-64
-65
-65
-67
-65
-61
-62
-63
-62
-62
-67
-63
-59
-60
-62
-65
-68
-65
-60
-61
-64
-64
-64
-65
-63
-64
-62
-62
-63
-61
-60
-61
-62
-64
-64
-61
-58
-60
-63
-63
-64
-61
-61
-61
-61
-64
-63
-60
-57
-60
-63
-62
-64
-63
-62
-62
-62
-62
-65
-60
-58
-59
-62
-61
-63
-63
-59
-60
-60
-62
-61
-61
-59
-60
-59
-61
-63
-59
-56
-57
-59
-60
-58
-56
-52
-54
-55
-55
-54
-52
-49
-50
-49
-45
-41
-33
-25
-22
-22
-25
-26
-27
-26
-28
-33
-36
-36
-36
-36
-32
-34
-39
-42
-41
-44
-50
-52
-52
-56
-55
-53
-54
-57
-61
-62
-61
-58
-58
-59
-62
-62
-62
-60
-59
-62
-63
-61
-61
-65
-73
-78
-79
-73
-47
-6
44
105
170
229
253
220
161
99
47
17
11
9
-1
-10
-20
-29
-38
-48
-58
-67
-73
-73
-72
-71
-72
-74
-77
-81
-79
-77
-77
-80
-83
-81
-81
-79
-81
-80
-81
-83
-80
-79
-77
-79
-83
-78
-78
-78
-78
-79
-80
-79
-78
-74
-76
-78
-82
-82
-80
-77
-79
-82
-79
-76
-74
-74
-74
-75
-79
-78
-74
-72
-71
-72
-75
-74
-72
-67
-65
-66
-67
-65
-61
-58
-57
-57
-54
-51
-50
-46
-42
-43
-42
-39
-36
-31
-31
-33
-35
-33
-29
-22
-24
-24
-24
-25
-20
-17
-17
-20
-24
-24
-19
-17
-20
-25
-30
-31
-30
-35
-36
-40
-45
-48
-45
-45
-52
-55
-56
-57
-55
-54
-57
-59
-64
-63
-61
-60
-61
-63
-63
-66
-63
-63
-63
-64
-63
-65
-58
-60
-61
-62
-64
-64
-63
-63
-63
-64
-67
-65
-61
-58
-60
-64
-63
-63
-62
-59
-58
-62
-61
-61
-60
-59
-60
-60
-62
-62
-60
-61
-62
-64
-64
-63
-63
-60
-59
-59
-64
-63
-62
-60
-59
-63
-65
-68
-62
-59
-60
-62
-64
-64
-61
-59
-60
-60
-61
-63
-63
-63
-60
-61
-65
-66
-63
-62
-61
-63
-64
-64
-61
-59
-60
-61
-63
-64
-61
-63
-60
-63
-66
-64
-61
-62
-61
-64
-63
-62
-59
-58
-57
-57
-59
-59
-53
-52
-50
-51
-50
-51
-47
-46
-43
-41
-38
-33
-23
-20
-21
-28
-31
-32
-30
-32
-34
-37
-41
-42
-40
-39
-42
-45
-48
-51
-53
-52
-58
-64
-64
-66
-63
-64
-66
-68
-66
-67
-66
-70
-68
-70
-71
-71
-72
-70
-67
-70
-74
-76
-78
-79
-77
-72
-55
-20
23
69
126
186
215
199
146
91
37
2
-10
-12
-18
-25
-34
-41
-49
-62
-67
-74
-78
-79
-72
-68
-69
-77
-89
-99
-102
-99
-94
-94
-95
-95
-95
-97
-93
-92
-87
-91
-95
-97
-95
-92
-93
-94
-94
-95
-91
-93
-92
-91
-92
-94
-95
-93
-88
-90
-92
-97
-97
-93
-94
-93
-95
-93
-89
-90
-90
-88
-91
-91
-90
-88
-86
-89
-90
-88
-82
-83
-82
-85
-85
-83
-76
-77
-75
-75
-73
-72
-69
-64
-64
-63
-63
-64
-62
-58
-57
-53
-50
-53
-49
-48
-45
-46
-47
-45
-41
-40
-42
-42
-41
-45
-47
-51
-49
-51
-53
-56
-54
-52
-54
-59
-66
-70
-69
-68
-68
-69
-71
-71
-70
-69
-66
-69
-73
-75
-75
-75
-72
-73
-78
-78
-75
-71
-73
-73
-72
-73
-71
-69
-70
-71
-71
-74
-70
-68
-66
-66
-68
-67
-67
-66
-66
-65
-67
-69
-66
-63
-59
-62
-63
-65
-61
-60
-59
-60
-66
-65
-60
-60
-59
-60
-63
-63
-62
-61
-61
-62
-62
-64
-59
-58
-59
-60
-64
-64
-62
-64
-60
-60
-62
-62
-61
-61
-58
-59
-63
-68
-66
-65
-61
-59
-63
-64
-62
-61
-61
-62
-63
-64
-66
-64
-64
-64
-62
-63
-62
-60
-60
-61
-61
-63
-60
-56
-56
-55
-56
-54
-53
-47
-49
-46
-40
-35
-27
-24
-24
-26
-28
-29
-26
-26
-30
-32
-36
-35
-36
-35
-34
-35
-41
-45
-49
-46
-49
-52
-56
-58
-55
-56
-55
-58
-60
-62
-59
-57
-59
-61
-60
-61
-61
-59
-59
-62
-61
-61
-61
-66
-72
-77
-74
-55
-17
33
88
157
214
240
216
160
100
47
15
3
0
-9
-18
-25
-33
-39
-44
-52
-57
-61
-66
-69
-67
-66
-68
-70
-69
-74
-74
-72
-70
-67
-70
-71
-70
-69
-70
-73
-75
-75
-71
-70
-70
-69
-70
-71
-69
-69
-66
-70
-68
-69
-68
-66
-67
-67
-69
-69
-65
-65
-66
-68
-68
-68
-68
-63
-63
-64
-65
-68
-61
-57
-57
-59
-58
-59
-57
-54
-57
-54
-55
-56
-50
-48
-47
-47
-46
-46
-44
-40
-38
-38
-37
-37
-32
-28
-26
-23
-23
-23
-20
-17
-15
-15
-17
-17
-12
-10
-8
-6
-8
-10
-6
-5
-7
-7
-10
-11
-10
-13
-16
-18
-23
-27
-30
-28
-29
-31
-33
-36
-36
-37
-41
-41
-44
-46
-44
-41
-44
-46
-46
-49
-47
-47
-46
-46
-48
-47
-45
-43
-42
-46
-48
-48
-47
-45
-43
-42
-47
-49
-46
-45
-45
-43
-44
-44
-43
-42
-42
-42
-46
-46
-43
-42
-38
-41
-40
-43
-40
-39
-38
-38
-41
-43
-43
-40
-40
-40
-45
-45
-44
-40
-40
-39
-43
-44
-43
-42
-41
-42
-47
-46
-42
-40
-41
-42
-44
-46
-46
-44
-42
-43
-42
-46
-47
-44
-43
-43
-46
-46
-44
-43
-45
-49
-50
-49
-41
-40
-45
-48
-49
-49
-48
-43
-43
-45
-45
-48
-48
-46
-45
-46
-46
-47
-47
-45
-41
-39
-36
-35
-36
-35
-36
-37
-35
-32
-24
-18
-14
-9
-11
-13
-15
-17
-13
-12
-18
-24
-23
-22
-20
-20
-22
-26
-32
-30
-36
-39
-44
-48
-49
-47
-45
-44
-49
-51
-48
-44
-42
-41
-43
-45
-44
-44
-48
-49
-50
-50
-48
-51
-56
-64
-67
-69
-59
-30
11
60
114
173
227
247
216
159
103
51
13
0
0
-5
-12
-19
-24
-30
-38
-49
-58
-59
-58
-53
-54
-60
-67
-68
-65
-63
-62
-64
-69
-72
-70
-68
-70
-67
-68
-67
-64
-64
-62
-63
-63
-66
-65
-65
-65
-63
-65
-64
-61
-60
-61
-63
-63
-62
-61
-60
-59
-57
-58
-57
-57
-55
-57
-57
-57
-58
-53
-52
-51
-51
-50
-48
-45
-46
-45
-45
-44
-45
-42
-41
-45
-45
-39
-39
-34
-33
-32
-26
-27
-28
-23
-20
-15
-15
-13
-14
-12
-9
-5
-5
-6
-7
-2
-2
1
-1
3
5
9
11
11
7
3
-1
1
2
4
5
3
2
-2
-8
-12
-16
-20
-22
-23
-18
-17
-17
-22
-27
-27
-28
-28
-29
-32
-36
-39
-35
-32
-33
-35
-39
-40
-40
-40
-42
-40
-42
-36
-35
-36
-37
-37
-39
-38
-37
-38
-37
-39
-40
-35
-34
-32
-36
-36
-41
-38
-39
-37
-35
-32
-36
-38
-37
-35
-30
-27
-32
-36
-36
-31
-31
-32
-35
-35
-35
-36
-36
-36
-36
-32
-31
-30
-30
-33
-37
-40
-39
-35
-30
-29
-33
-33
-32
-30
-29
-32
-33
-33
-29
-30
-33
-36
-40
-35
-30
-29
-32
-36
-40
-39
-33
-30
-29
-32
-33
-37
-35
-38
-35
-35
-36
-31
-29
-29
-30
-32
-38
-36
-32
-32
-34
-35
-37
-33
-31
-35
-35
-33
-32
-33
-34
-30
-25
-25
-28
-26
-25
-22
-22
-24
-27
-26
-18
-15
-11
-6
-3
3
3
1
-2
-2
-7
-8
-11
-10
-11
-12
-12
-8
-3
-7
-14
-22
-28
-32
-35
-37
-42
-43
-41
-40
-33
-29
-32
-32
-38
-38
-40
-41
-47
-54
-59
-60
-56
-49
-48
-47
-49
-48
-46
-49
-56
-63
-66
-56
-34
0
41
87
141
202
242
244
204
150
103
57
21
-1
-6
-12
-22
-27
-29
-30
-34
-43
-51
-54
-51
-49
-51
-58
-60
-63
-64
-64
-66
-67
-68
-65
-62
-62
-63
-66
-69
-64
-62
-66
-68
-69
-68
-68
-66
-65
-64
-66
-66
-65
-67
-66
-65
-64
-63
-63
-61
-60
-59
-61
-66
-65
-66
-64
-66
-61
-61
-63
-68
-69
-68
-65
-62
-56
-54
-51
-55
-56
-58
-58
-56
-48
-45
-46
-52
-56
-52
-47
-43
-43
-43
-38
-35
-35
-38
-40
-39
-35
-32
-29
-27
-29
-29
-26
-22
-16
-17
-18
-17
-15
-11
-11
-9
-10
-15
-11
-7
-7
-7
-10
-10
-8
-5
-6
-4
-9
-15
-19
-18
-16
-16
-20
-25
-28
-33
-37
-36
-36
-40
-41
-42
-42
-40
-45
-49
-49
-48
-45
-44
-48
-50
-47
-45
-44
-46
-48
-48
-45
-45
-46
-51
-51
-50
-47
-49
-49
-51
-52
-51
-49
-47
-48
-47
-47
-50
-53
-52
-49
-47
-42
-42
-42
-40
-42
-46
-44
-46
-43
-42
-42
-43
-44
-50
-47
-44
-38
-41
-43
-45
-46
-47
-47
-43
-45
-48
-50
-49
-49
-46
-42
-46
-49
-53
-53
-51
-45
-47
-45
-46
-45
-42
-42
-45
-47
-45
-42
-39
-38
-45
-47
-47
-45
-46
-48
-50
-49
-46
-43
-46
-50
-49
-47
-43
-43
-43
-46
-49
-46
-48
-49
-49
-49
-51
-48
-48
-48
-48
-45
-45
-45
-44
-42
-39
-39
-40
-38
-34
-33
-30
-30
-37
-41
-40
-34
-24
-20
-11
-6
-9
-15
-14
-12
-13
-17
-19
-19
-20
-24
-28
-27
-27
-26
-26
-29
-36
-39
-41
-43
-46
-46
-48
-45
-43
-43
-38
-36
-35
-42
-51
-58
-62
-61
-58
-57
-57
-55
-55
-58
-59
-60
-59
-58
-60
-57
-50
-31
3
40
89
148
195
207
174
119
68
24
-8
-22
-25
-32
-38
-38
-41
-40
-43
-47
-57
-61
-65
-67
-67
-62
-65
-64
-65
-69
-69
-70
-73
-73
-72
-64
-62
-67
-74
-75
-72
-68
-65
-62
-60
-65
-67
-70
-71
-70
-67
-66
-61
-61
-64
-62
-61
-64
-69
-66
-60
-57
-56
-56
-62
-63
-69
-68
-64
-63
-61
-63
-63
-61
-61
-61
-63
-61
-60
-55
-54
-52
-53
-53
-52
-52
-50
-47
-49
-52
-46
-39
-35
-34
-36
-34
-32
-29
-29
-25
-24
-22
-20
-20
-17
-18
-19
-17
-14
-8
-8
-9
-10
-12
-12
-7
-4
-4
-8
-9
-11
-11
-11
-10
-12
-14
-18
-22
-26
-30
-33
-33
-31
-28
-30
-35
-38
-36
-33
-33
-38
-40
-47
-49
-47
-48
-47
-49
-52
-53
-49
-46
-43
-42
-48
-45
-48
-49
-51
-54
-54
-55
-50
-44
-39
-42
-48
-52
-47
-43
-43
-48
-50
-51
-48
-45
-44
-42
-41
-37
-38
-38
-36
-31
-32
-38
-45
-49
-52
-48
-43
-42
-43
-52
-62
-63
-61
-55
-52
-51
-51
-52
-55
-55
-54
-50
-54
-54
-56
-54
-52
-55
-53
-55
-54
-51
-50
-52
-56
-55
-55
-53
-52
-51
-53
-56
-54
-49
-49
-47
-52
-57
-56
-54
-49
-49
-51
-51
-51
-54
-56
-53
-51
-48
-45
-39
-40
-39
-40
-40
-39
-42
-45
-50
-49
-47
-48
-42
-37
-27
-19
-15
-15
-17
-22
-29
-33
-31
-27
-27
-25
-26
-26
-27
-31
-30
-37
-43
-47
-48
-51
-52
-51
-48
-47
-50
-53
-57
-57
-55
-56
-61
-66
-64
-64
-60
-60
-60
-63
-66
-65
-66
-69
-73
-78
-81
-79
-67
-38
5
50
112
178
229
225
167
99
40
4
-11
-18
-35
-47
-53
-55
-58
-58
-64
-71
-74
-73
-72
-76
-79
-79
-78
-78
-79
-82
-82
-80
-76
-77
-78
-82
-84
-84
-81
-80
-75
-72
-70
-70
-75
-81
-84
-85
-84
-85
-79
-74
-73
-71
-72
-79
-83
-85
-87
-84
-85
-83
-80
-78
-77
-80
-83
-80
-82
-78
-81
-84
-85
-79
-75
-71
-67
-67
-72
-74
-71
-68
-69
-72
-74
-69
-64
-57
-52
-47
-47
-48
-50
-46
-40
-40
-44
-48
-44
-35
-31
-33
-38
-36
-33
-31
-32
-35
-35
-34
-29
-30
-32
-36
-37
-46
-51
-52
-51
-51
-54
-61
-63
-65
-64
-69
-74
-75
-75
-74
-72
-72
-71
-72
-74
-79
-81
-80
-82
-81
-78
-79
-75
-74
-78
-82
-79
-77
-76
-78
-81
-83
-80
-78
-73
-74
-78
-81
-82
-75
-72
-71
-73
-77
-74
-68
-69
-69
-72
-73
-75
-72
-74
-70
-71
-71
-71
-72
-74
-77
-78
-82
-81
-80
-77
-73
-76
-75
-69
-62
-63
-66
-73
-76
-80
-80
-76
-74
-72
-74
-74
-71
-70
-72
-74
-78
-83
-85
-80
-77
-76
-75
-78
-79
-77
-81
-87
-90
-86
-81
-80
-74
-71
-72
-73
-74
-76
-78
-80
-78
-77
-79
-79
-81
-83
-86
-81
-75
-70
-74
-82
-86
-82
-78
-75
-69
-65
-66
-69
-73
-72
-72
-64
-62
-59
-55
-50
-47
-53
-57
-49
-41
-42
-52
-63
-62
-59
-58
-63
-66
-71
-71
-69
-73
-85
-93
-91
-84
-81
-85
-93
-101
-97
-90
-89
-91
-92
-94
-98
-103
-108
-110
-102
-92
-90
-97
-107
-110
-114
-114
-106
-79
-29
31
102
176
226
220
168
99
28
-28
-57
-68
-77
-90
-95
-95
-91
-88
-91
-101
-110
-113
-115
-121
-122
-122
-115
-112
-116
-120
-120
-121
-116
-117
-119
-125
-127
-128
-126
-118
-113
-116
-120
-126
-127
-122
-119
-121
-119
-115
-116
-125
-132
-125
-117
-117
-117
-120
-120
-122
-115
-113
-116
-118
-121
-120
-119
-117
-118
-123
-122
-118
-115
-114
-112
-110
-106
-109
-113
-115
-113
-109
-101
-101
-103
-104
-102
-99
-95
-93
-85
-84
-88
-88
-81
-77
-77
-75
-71
-66
-64
-64
-64
-62
-66
-68
-66
-63
-54
-50
-51
-59
-64
-68
-67
-65
-68
-73
-81
-82
-79
-76
-77
-79
-81
-86
-85
-89
-95
-103
-106
-105
-105
-107
-99
-98
-101
-110
-118
-115
-109
-106
-103
-109
-113
-104
-101
-104
-111
-117
-114
-110
-107
-111
-117
-123
-119
-108
-101
-94
-100
-118
-123
-115
-105
-103
-106
-110
-109
-103
-105
-106
-107
-109
-106
-102
-97
-98
-97
-97
-100
-104
-107
-105
-104
-107
-105
-103
-106
-109
-110
-114
-109
-103
-103
-104
-108
-113
-104
-95
-92
-97
-109
-118
-116
-107
-102
-104
-106
-107
-105
-106
-107
-110
-112
-113
-107
-107
-107
-106
-102
-101
-98
-97
-104
-108
-107
-100
-95
-93
-98
-103
-106
-108
-110
-107
-98
-92
-89
-90
-91
-90
-88
-89
-84
-78
-73
-64
-53
-52
-61
-68
-68
-68
-66
-71
-74
-75
-79
-84
-82
-75
-71
-74
-85
-92
-101
-107
-100
-95
-95
-97
-99
-103
-102
-104
-107
-111
-109
-104
-102
-98
-101
-107
-110
-110
-111
-114
-121
-126
-121
-99
-60
-8
57
130
204
250
249
193
106
37
-9
-35
-53
-74
-87
-87
-89
-97
-105
-108
-103
-100
-100
-102
-108
-114
-118
-119
-112
-111
-112
-114
-112
-110
-109
-113
-119
-122
-120
-114
-109
-109
-109
-108
-104
-102
-101
-100
-104
-108
-110
-111
-107
-104
-104
-107
-107
-103
-107
-110
-115
-123
-114
-97
-92
-96
-101
-105
-102
-102
-104
-98
-93
-103
-109
-97
-71
-61
-80
-97
-90
-68
-59
-69
-76
-86
-91
-80
-69
-66
-61
-62
-68
-73
-69
-60
-54
-43
-30
-30
-43
-52
-48
-31
-23
-20
-18
-23
-31
-43
-55
-49
-25
-13
-21
-31
-30
-26
-35
-54
-69
-68
-60
-63
-64
-68
-77
-93
-88
-62
-40
-43
-69
-89
-90
-78
-70
-69
-72
-74
-77
-85
-90
-94
-97
-109
-110
-88
-53
-46
-64
-70
-74
-84
-87
-84
-84
-90
-99
-94
-82
-74
-79
-80
-70
-59
-54
-62
-77
-86
-88
-87
-80
-72
-67
-70
-79
-86
-84
-72
-67
-70
-82
-95
-92
-77
-63
-64
-73
-80
-81
-78
-72
-66
-69
-83
-79
-60
-57
-74
-89
-92
-72
-60
-63
-85
-107
-99
-62
-29
-35
-65
-91
-103
-89
-61
-41
-50
-68
-75
-85
-98
-101
-77
-46
-33
-43
-59
-76
-87
-84
-80
-80
-77
-65
-53
-44
-37
-25
-19
-26
-48
-67
-63
-44
-28
-24
-32
-46
-56
-62
-63
-63
-69
-79
-78
-63
-52
-58
-74
-84
-83
-89
-96
-84
-57
-49
-62
-80
-87
-82
-78
-73
-70
-75
-82
-83
-78
-73
-75
-90
-107
-113
-111
-98
-63
-13
50
125
209
275
291
246
165
86
23
2
3
-19
-69
-91
-65
-38
-42
-62
-78
-87
-96
-107
-103
-90
-86
-94
-101
-92
-76
-68
-70
-85
-99
-105
-87
-74
-75
-89
-101
-106
-100
-99
-115
-120
-111
-86
-73
-74
-91
-102
-102
-101
-93
-88
-90
-101
-96
-73
-58
-76
-104
-110
-96
-78
-77
-93
-96
-76
-67
-77
-90
-90
-93
-92
-91
-80
-74
-78
-87
-93
-75
-53
-43
-50
-55
-51
-47
-56
-68
-67
-57
-42
-33
-36
-45
-48
-45
-40
-41
-32
-23
-21
-23
-24
-31
-30
-15
-5
-8
-9
-7
-15
-23
-39
-56
-54
-31
-10
-7
-24
-41
-62
-69
-67
-54
-50
-57
-59
-54
-51
-56
-66
-74
-78
-86
-89
-82
-65
-59
-55
-55
-62
-67
-76
-84
-90
-89
-88
-88
-79
-72
-65
-68
-75
-73
-62
-58
-59
-65
-65
-61
-62
-68
-73
-75
-74
-72
-66
-62
-66
-76
-79
-69
-57
-58
-62
-67
-74
-76
-73
-64
-58
-64
-70
-69
-71
-74
-76
-74
-68
-60
-62
-69
-67
-59
-55
-57
-66
-70
-67
-58
-60
-67
-70
-71
-62
-56
-58
-67
-71
-69
-72
-74
-76
-75
-70
-63
-63
-61
-55
-61
-77
-80
-66
-54
-54
-55
-59
-61
-62
-67
-71
-71
-60
-45
-30
-30
-37
-35
-35
-41
-47
-43
-42
-44
-41
-40
-44
-56
-63
-56
-38
-35
-43
-53
-60
-61
-59
-68
-78
-81
-72
-63
-67
-75
-75
-75
-69
-64
-64
-67
-72
-79
-86
-83
-76
-72
-70
-72
-82
-89
-83
-77
-78
-87
-96
-85
-58
-15
38
99
170
239
286
284
235
164
95
47
26
8
-25
-54
-57
-47
-47
-57
-67
-73
-78
-72
-64
-62
-72
-79
-80
-73
-69
-70
-73
-76
-76
-80
-78
-79
-80
-79
-76
-76
-80
-79
-74
-68
-66
-70
-79
-91
-95
-88
-79
-71
-69
-67
-69
-65
-72
-87
-95
-83
-62
-58
-63
-65
-68
-71
-76
-78
-78
-86
-86
-70
-51
-51
-64
-64
-58
-56
-57
-66
-76
-79
-71
-59
-56
-63
-63
-56
-51
-51
-48
-46
-45
-43
-47
-48
-42
-33
-29
-25
-25
-31
-31
-21
-18
-19
-12
0
-1
-13
-19
-16
-4
8
11
4
-1
0
-1
-2
-6
-13
-23
-27
-20
-13
-21
-41
-46
-36
-34
-38
-44
-50
-55
-58
-57
-50
-53
-61
-63
-55
-47
-54
-68
-71
-63
-59
-61
-65
-64
-61
-52
-60
-74
-73
-67
-64
-63
-62
-64
-71
-71
-61
-56
-58
-60
-66
-64
-58
-51
-48
-49
-55
-63
-67
-61
-55
-61
-68
-57
-38
-36
-49
-57
-64
-65
-56
-48
-46
-48
-53
-64
-70
-58
-44
-42
-49
-58
-61
-56
-50
-48
-54
-66
-75
-75
-62
-42
-28
-31
-46
-58
-54
-45
-42
-41
-50
-62
-68
-60
-48
-37
-37
-54
-62
-56
-40
-31
-35
-44
-37
-32
-33
-45
-54
-48
-31
-22
-10
-6
-3
-9
-17
-23
-29
-29
-16
-13
-15
-27
-33
-25
-13
-14
-20
-28
-40
-48
-57
-57
-49
-41
-45
-47
-48
-47
-37
-33
-44
-57
-62
-58
-46
-28
-26
-46
-71
-70
-37
-10
-16
-37
-55
-64
-62
-52
-35
-14
23
78
147
223
288
318
301
239
165
97
43
27
26
10
-21
-37
-43
-50
-53
-51
-49
-59
-74
-77
-77
-77
-77
-73
-70
-68
-70
-74
-78
-81
-76
-66
-67
-73
-74
-67
-68
-75
-91
-100
-98
-85
-77
-66
-68
-75
-75
-77
-81
-83
-90
-90
-84
-67
-54
-53
-71
-81
-80
-73
-74
-75
-77
-73
-69
-66
-62
-55
-60
-67
-74
-75
-73
-69
-66
-68
-72
-71
-63
-50
-47
-51
-53
-49
-49
-48
-52
-55
-50
-46
-46
-48
-42
-37
-35
-37
-45
-45
-28
-18
-10
0
3
-4
-18
-26
-15
-2
0
1
1
1
5
15
13
3
-5
-4
5
7
2
-7
-9
-12
-16
-15
-21
-25
-32
-37
-43
-43
-43
-45
-47
-45
-45
-51
-54
-52
-48
-48
-56
-61
-62
-60
-64
-66
-60
-56
-52
-52
-59
-69
-67
-63
-60
-60
-59
-63
-66
-62
-46
-39
-42
-50
-49
-46
-53
-61
-71
-69
-59
-41
-36
-44
-55
-61
-53
-46
-46
-48
-51
-45
-40
-45
-58
-65
-58
-40
-23
-30
-46
-49
-44
-42
-41
-39
-43
-48
-48
-47
-39
-36
-36
-34
-40
-41
-42
-46
-55
-59
-53
-43
-38
-44
-52
-57
-57
-58
-56
-56
-54
-47
-36
-26
-26
-30
-33
-31
-38
-44
-36
-29
-31
-37
-34
-23
-5
3
-4
-9
-14
-24
-35
-40
-40
-43
-40
-35
-25
-30
-45
-53
-53
-49
-47
-48
-52
-51
-51
-57
-61
-62
-58
-53
-56
-58
-58
-58
-56
-60
-65
-65
-63
-58
-58
-64
-70
-76
-76
-73
-67
-50
-12
46
111
182
249
297
302
256
178
100
37
-6
-17
-27
-37
-45
-48
-50
-55
-66
-73
-73
-68
-67
-76
-78
-77
-72
-75
-81
-80
-80
-80
-83
-86
-85
-85
-83
-79
-73
-76
-80
-87
-93
-93
-85
-82
-83
-84
-83
-82
-83
-83
-86
-93
-101
-94
-75
-61
-63
-72
-76
-78
-80
-80
-85
-81
-77
-71
-65
-62
-67
-76
-84
-81
-67
-64
-67
-70
-69
-65
-63
-62
-63
-66
-65
-59
-49
-44
-42
-45
-49
-49
-48
-48
-41
-29
-18
-13
-15
-20
-21
-14
-10
-8
-3
-6
-9
-12
-8
1
4
2
-2
-4
-3
3
1
-3
-11
-13
-14
-18
-24
-27
-32
-33
-39
-42
-40
-37
-39
-44
-50
-51
-50
-52
-55
-53
-50
-48
-54
-56
-56
-54
-50
-47
-48
-51
-53
-54
-53
-51
-54
-57
-56
-53
-54
-56
-55
-55
-54
-57
-58
-57
-57
-56
-52
-51
-49
-50
-50
-50
-50
-51
-53
-53
-52
-51
-49
-49
-50
-50
-50
-51
-52
-50
-51
-49
-47
-48
-53
-54
-57
-54
-51
-50
-49
-48
-48
-48
-46
-49
-50
-52
-52
-52
-49
-43
-48
-53
-52
-52
-52
-53
-53
-49
-46
-50
-47
-50
-50
-49
-46
-44
-46
-43
-42
-41
-43
-41
-35
-29
-24
-22
-17
-10
-9
-11
-15
-18
-17
-19
-14
-16
-19
-28
-34
-31
-27
-27
-29
-34
-39
-44
-47
-46
-47
-50
-50
-52
-49
-51
-51
-53
-54
-54
-55
-55
-58
-60
-60
-56
-54
-54
-55
-59
-59
-61
-65
-64
-58
-48
-16
28
83
146
215
274
299
272
205
133
63
8
-13
-10
-15
-27
-33
-39
-42
-45
-49
-58
-67
-72
-72
-68
-63
-67
-72
-73
-75
-77
-74
-72
-73
-73
-77
-81
-76
-73
-76
-77
-78
-80
-76
-76
-77
-79
-81
-81
-79
-76
-74
-76
-79
-77
-77
-77
-78
-78
-78
-76
-76
-75
-74
-75
-75
-75
-76
-75
-75
-74
-72
-75
-73
-73
-71
-71
-71
-68
-68
-66
-67
-69
-69
-64
-63
-61
-61
-60
-59
-55
-53
-51
-52
-53
-49
-47
-40
-38
-38
-40
-39
-32
-27
-26
-24
-26
-23
-18
-15
-13
-15
-14
-13
-9
-7
-8
-9
-13
-15
-15
-15
-15
-21
-23
-28
-33
-30
-35
-40
-43
-47
-46
-48
-49
-51
-53
-56
-54
-55
-54
-54
-56
-57
-59
-55
-55
-58
-62
-61
-62
-60
-59
-62
-63
-62
-62
-60
-60
-63
-63
-62
-61
-56
-57
-58
-63
-62
-57
-55
-54
-57
-60
-61
-60
-56
-57
-58
-61
-61
-55
-55
-57
-56
-58
-58
-57
-55
-58
-57
-59
-59
-57
-57
-55
-56
-57
-60
-57
-58
-57
-60
-61
-61
-61
-57
-58
-58
-60
-60
-59
-59
-57
-58
-60
-57
-57
-56
-58
-60
-62
-65
-63
-61
-60
-57
-60
-61
-59
-56
-53
-51
-53
-55
-51
-50
-45
-42
-37
-36
-28
-21
-19
-24
-29
-31
-29
-26
-28
-31
-37
-39
-39
-39
-40
-42
-47
-51
-52
-50
-54
-58
-62
-65
-64
-63
-66
-65
-70
-72
-70
-68
-71
-72
-73
-74
-73
-72
-74
-75
-73
-72
-69
-69
-75
-79
-80
-75
-63
-35
13
69
131
200
259
271
225
150
76
11
-30
-39
-41
-52
-56
-58
-61
-62
-71
-82
-86
-89
-91
-90
-90
-90
-92
-94
-96
-96
-98
-99
-97
-96
-94
-94
-97
-97
-97
-99
-96
-97
-97
-97
-98
-98
-97
-92
-94
-96
-97
-97
-95
-95
-97
-97
-99
-102
-97
-94
-93
-90
-93
-94
-94
-93
-93
-96
-96
-100
-93
-90
-84
-85
-90
-94
-90
-84
-80
-80
-82
-85
-79
-74
-69
-71
-74
-74
-67
-60
-56
-54
-56
-54
-54
-49
-49
-46
-41
-39
-36
-36
-34
-30
-30
-29
-29
-31
-35
-32
-29
-32
-32
-33
-37
-42
-45
-47
-49
-50
-53
-60
-57
-62
-65
-65
-64
-67
-69
-73
-69
-66
-67
-69
-67
-69
-70
-72
-73
-73
-72
-69
-70
-71
-73
-75
-74
-73
-69
-67
-68
-69
-72
-75
-71
-66
-63
-65
-71
-71
-67
-64
-64
-67
-73
-73
-69
-69
-70
-67
-67
-66
-65
-66
-64
-66
-69
-70
-66
-64
-62
-65
-68
-70
-64
-60
-61
-65
-64
-66
-68
-63
-60
-63
-64
-67
-66
-69
-65
-62
-63
-65
-67
-64
-62
-61
-63
-68
-63
-62
-62
-61
-61
-63
-60
-58
-55
-58
-58
-56
-51
-46
-43
-40
-35
-34
-27
-21
-20
-25
-31
-31
-30
-32
-36
-40
-42
-44
-42
-44
-43
-48
-50
-54
-59
-60
-61
-62
-66
-71
-69
-66
-60
-64
-69
-76
-76
-75
-74
-77
-77
-75
-72
-69
-69
-72
-77
-86
-83
-80
-73
-51
-15
32
98
161
222
254
235
170
97
41
0
-27
-42
-60
-65
-67
-64
-70
-80
-86
-87
-87
-88
-89
-93
-95
-96
-97
-96
-99
-102
-101
-99
-97
-96
-97
-100
-98
-97
-95
-97
-100
-99
-101
-102
-100
-97
-93
-94
-101
-105
-103
-101
-101
-104
-106
-104
-102
-97
-97
-100
-103
-104
-100
-95
-95
-97
-100
-99
-98
-99
-100
-98
-102
-100
-93
-90
-89
-92
-92
-89
-87
-84
-85
-84
-79
-73
-73
-75
-75
-70
-65
-61
-57
-57
-55
-57
-56
-53
-49
-44
-44
-41
-40
-39
-35
-33
-32
-34
-38
-39
-38
-39
-43
-45
-49
-51
-57
-63
-66
-64
-63
-65
-68
-72
-79
-81
-84
-83
-85
-85
-80
-81
-85
-89
-89
-84
-81
-82
-84
-83
-82
-83
-85
-89
-89
-89
-86
-86
-88
-86
-90
-86
-87
-90
-89
-88
-90
-90
-91
-89
-87
-84
-87
-87
-88
-86
-88
-91
-91
-91
-87
-86
-85
-84
-87
-86
-87
-86
-86
-87
-89
-87
-83
-83
-85
-85
-88
-86
-85
-81
-79
-79
-81
-86
-88
-89
-88
-90
-91
-91
-91
-92
-89
-90
-92
-89
-89
-87
-88
-89
-89
-89
-88
-83
-83
-82
-88
-85
-85
-83
-81
-82
-82
-77
-71
-67
-59
-54
-52
-51
-49
-51
-56
-58
-62
-61
-57
-58
-62
-65
-69
-70
-73
-71
-78
-84
-89
-89
-87
-86
-87
-91
-93
-92
-90
-92
-94
-97
-101
-96
-95
-94
-96
-97
-96
-97
-96
-97
-101
-105
-107
-101
-80
-36
17
85
159
222
247
207
129
54
-5
-42
-51
-60
-66
-71
-77
-80
-83
-89
-96
-101
-107
-106
-105
-104
-110
-111
-113
-112
-106
-103
-104
-106
-109
-107
-105
-107
-109
-110
-112
-108
-106
-104
-106
-109
-110
-106
-104
-101
-99
-102
-107
-109
-103
-102
-103
-102
-102
-98
-100
-102
-102
-101
-101
-102
-98
-95
-95
-98
-100
-95
-96
-93
-93
-96
-95
-95
-92
-90
-88
-88
-90
-89
-86
-80
-79
-79
-79
-76
-71
-66
-63
-61
-65
-62
-59
-55
-51
-49
-51
-49
-45
-42
-42
-41
-43
-39
-35
-31
-27
-27
-34
-35
-32
-27
-27
-30
-36
-38
-41
-45
-51
-54
-56
-57
-64
-64
-64
-69
-73
-73
-74
-71
-76
-80
-81
-74
-73
-72
-78
-82
-87
-89
-88
-89
-86
-85
-82
-77
-71
-77
-85
-94
-95
-87
-80
-75
-72
-75
-83
-88
-82
-79
-77
-80
-82
-73
-70
-72
-74
-79
-83
-82
-76
-70
-64
-63
-69
-74
-76
-73
-62
-54
-60
-68
-72
-70
-65
-61
-65
-69
-68
-64
-62
-58
-65
-68
-68
-63
-62
-62
-64
-62
-62
-63
-69
-68
-65
-61
-61
-63
-66
-67
-69
-64
-65
-68
-66
-65
-66
-60
-58
-54
-59
-63
-65
-59
-54
-45
-46
-54
-56
-47
-32
-21
-20
-23
-24
-25
-30
-26
-23
-33
-49
-52
-42
-28
-29
-38
-50
-54
-47
-42
-51
-62
-64
-64
-67
-71
-73
-71
-74
-71
-57
-50
-53
-67
-78
-84
-91
-83
-73
-66
-70
-75
-70
-67
-74
-85
-94
-96
-78
-35
22
78
135
210
273
281
226
155
87
19
-26
-38
-41
-51
-58
-60
-69
-81
-86
-86
-76
-74
-76
-72
-78
-94
-112
-108
-99
-94
-97
-97
-92
-88
-87
-89
-93
-95
-98
-105
-109
-104
-82
-77
-93
-107
-115
-106
-92
-88
-102
-108
-110
-103
-95
-99
-116
-124
-122
-113
-99
-87
-88
-102
-120
-124
-113
-100
-98
-103
-104
-98
-89
-91
-102
-107
-104
-107
-110
-112
-108
-102
-94
-81
-73
-75
-79
-79
-76
-73
-73
-75
-84
-97
-101
-95
-74
-51
-40
-32
-34
-42
-54
-65
-73
-74
-71
-60
-52
-48
-53
-51
-38
-27
-27
-26
-30
-37
-45
-57
-64
-66
-63
-50
-43
-52
-60
-68
-65
-65
-66
-67
-72
-76
-83
-93
-105
-104
-100
-87
-76
-69
-70
-76
-81
-86
-85
-80
-77
-67
-64
-62
-65
-72
-78
-80
-77
-77
-82
-90
-94
-97
-99
-100
-99
-97
-93
-88
-85
-89
-96
-90
-81
-79
-85
-85
-77
-71
-71
-77
-79
-78
-78
-77
-76
-74
-73
-79
-77
-74
-73
-74
-77
-80
-79
-76
-78
-80
-83
-84
-83
-77
-72
-62
-57
-59
-66
-74
-72
-66
-63
-65
-72
-74
-72
-65
-65
-64
-72
-76
-73
-66
-59
-55
-57
-55
-57
-56
-57
-54
-53
-56
-50
-50
-52
-59
-62
-63
-58
-51
-47
-39
-30
-22
-19
-23
-30
-28
-33
-34
-35
-33
-29
-31
-35
-37
-39
-42
-45
-49
-53
-55
-54
-48
-52
-57
-62
-61
-54
-53
-57
-59
-67
-68
-61
-58
-58
-59
-58
-54
-54
-55
-58
-59
-64
-66
-64
-57
-36
4
52
118
191
265
301
281
213
141
77
34
14
11
-1
-14
-15
-19
-25
-31
-39
-45
-51
-54
-59
-65
-74
-76
-71
-62
-61
-65
-69
-68
-66
-67
-68
-72
-75
-74
-68
-67
-67
-73
-74
-70
-69
-69
-69
-67
-67
-70
-69
-68
-67
-71
-75
-74
-70
-62
-62
-65
-72
-78
-78
-73
-71
-71
-70
-66
-60
-59
-67
-67
-70
-68
-62
-60
-59
-60
-60
-58
-56
-56
-57
-54
-55
-50
-47
-51
-50
-48
-39
-30
-29
-28
-28
-29
-28
-28
-26
-20
-14
-13
-15
-13
-7
1
1
-5
-6
0
3
9
6
5
5
7
6
7
5
3
-1
-6
-5
-3
-5
-9
-11
-13
-17
-20
-23
-27
-30
-32
-29
-30
-33
-37
-41
-41
-37
-30
-31
-36
-41
-44
-43
-41
-39
-36
-34
-34
-36
-36
-40
-40
-40
-38
-38
-36
-36
-34
-41
-44
-42
-39
-34
-35
-37
-40
-37
-32
-31
-33
-36
-34
-35
-31
-31
-32
-35
-33
-30
-30
-33
-35
-34
-31
-29
-26
-27
-30
-33
-32
-27
-27
-28
-29
-31
-30
-28
-23
-24
-27
-29
-29
-30
-30
-33
-35
-38
-34
-28
-28
-28
-28
-31
-30
-27
-27
-28
-33
-35
-32
-28
-25
-27
-29
-34
-35
-31
-29
-25
-25
-27
-24
-26
-22
-22
-22
-25
-23
-21
-16
-10
-12
-16
-14
-9
-4
2
6
13
16
16
13
10
9
7
6
6
6
6
4
-2
-4
-5
-5
-9
-12
-14
-18
-25
-27
-26
-25
-27
-29
-29
-30
-33
-33
-37
-40
-37
-34
-32
-35
-38
-37
-36
-31
-33
-37
-44
-41
-38
-40
-47
-50
-40
-16
23
68
120
185
254
302
303
251
182
116
58
23
17
19
10
-7
-14
-17
-18
-27
-38
-49
-52
-45
-37
-40
-46
-54
-59
-57
-53
-47
-50
-53
-53
-53
-53
-54
-55
-54
-55
-51
-47
-48
-53
-58
-59
-56
-50
-49
-54
-58
-57
-58
-55
-53
-51
-52
-56
-59
-56
-49
-47
-50
-56
-60
-55
-51
-49
-50
-53
-51
-53
-54
-54
-52
-54
-51
-47
-47
-47
-48
-47
-45
-47
-46
-44
-40
-39
-39
-33
-31
-26
-26
-26
-24
-24
-21
-24
-20
-15
-9
-8
-7
-8
-4
0
0
0
1
3
6
7
11
7
13
12
10
9
11
13
13
9
3
-1
-3
-4
-8
-18
-21
-17
-15
-19
-20
-20
-21
-29
-34
-37
-39
-39
-37
-36
-38
-41
-43
-44
-44
-44
-44
-42
-44
-45
-46
-49
-50
-49
-47
-46
-47
-51
-55
-52
-51
-51
-52
-53
-49
-48
-43
-45
-47
-49
-51
-52
-50
-50
-52
-54
-53
-48
-43
-44
-49
-51
-51
-46
-46
-49
-52
-53
-49
-47
-44
-46
-48
-48
-46
-47
-50
-53
-53
-53
-50
-50
-51
-52
-47
-45
-43
-43
-46
-53
-56
-56
-52
-46
-46
-49
-52
-53
-51
-49
-50
-51
-55
-57
-57
-55
-54
-57
-57
-53
-49
-46
-51
-55
-54
-50
-47
-45
-45
-44
-46
-51
-51
-46
-44
-43
-42
-46
-46
-44
-37
-30
-26
-24
-23
-17
-13
-18
-25
-24
-11
0
0
-9
-17
-25
-26
-24
-20
-15
-18
-29
-37
-43
-46
-47
-45
-43
-42
-42
-41
-40
-41
-51
-64
-72
-62
-42
-29
-36
-43
-46
-46
-48
-52
-53
-48
-43
-40
-44
-54
-59
-56
-45
-18
18
67
126
198
265
295
267
207
143
84
41
14
10
5
-3
-8
-6
-8
-19
-31
-44
-50
-47
-39
-29
-31
-42
-50
-57
-60
-56
-50
-45
-37
-35
-36
-42
-46
-48
-38
-29
-23
-23
-28
-32
-38
-42
-49
-57
-58
-48
-33
-22
-26
-34
-40
-40
-31
-22
-15
-8
-11
-13
-24
-33
-39
-35
-18
4
23
20
5
-20
-44
-55
-47
-28
-8
-7
-21
-37
-48
-42
-15
23
43
21
-18
-48
-50
-18
31
50
30
-8
-31
-30
-21
-14
7
43
70
62
28
-11
-18
20
68
92
84
55
14
-15
-18
4
30
40
37
26
5
-10
-7
16
42
43
16
-26
-53
-49
-29
-10
-4
-18
-36
-28
-3
12
9
5
-5
-27
-58
-65
-54
-29
-5
8
-2
-20
-37
-51
-60
-44
-16
-9
-35
-60
-50
-15
-1
-20
-53
-71
-68
-49
-28
-21
-25
-39
-50
-52
-52
-40
-17
-5
-4
-25
-54
-74
-81
-74
-60
-44
-29
-17
-27
-54
-73
-66
-48
-45
-48
-44
-39
-34
-35
-34
-40
-57
-72
-79
-73
-55
-36
-28
-36
-47
-53
-57
-67
-78
-77
-63
-43
-33
-38
-57
-74
-78
-69
-57
-46
-35
-26
-28
-43
-61
-70
-70
-64
-61
-57
-45
-32
-22
-17
-18
-17
-17
-18
-18
-21
-26
-25
-22
-22
-28
-40
-45
-41
-35
-35
-38
-45
-51
-58
-59
-59
-62
-64
-63
-63
-60
-60
-61
-60
-60
-59
-60
-64
-66
-63
-63
-61
-60
-61
-67
-75
-82
-85
-79
-65
-45
-10
34
93
164
228
262
241
180
111
63
29
8
-10
-39
-60
-60
-50
-47
-52
-54
-57
-60
-59
-63
-68
-77
-79
-81
-76
-75
-74
-73
-72
-72
-70
-68
-69
-72
-76
-76
-75
-73
-65
-68
-71
-70
-70
-67
-68
-70
-69
-67
-68
-72
-75
-80
-77
-71
-69
-67
-70
-69
-69
-67
-69
-70
-73
-73
-71
-70
-70
-68
-67
-65
-64
-61
-59
-61
-64
-70
-68
-62
-53
-52
-54
-56
-55
-59
-53
-48
-45
-42
-42
-42
-38
-36
-34
-33
-29
-29
-28
-27
-28
-30
-28
-22
-17
-18
-20
-25
-25
-20
-18
-19
-23
-24
-28
-30
-32
-33
-35
-41
-49
-50
-50
-50
-54
-57
-60
-57
-55
-58
-59
-67
-70
-67
-60
-57
-59
-66
-72
-71
-66
-62
-61
-63
-65
-69
-61
-59
-60
-64
-65
-65
-62
-65
-65
-68
-65
-62
-55
-58
-62
-65
-62
-59
-55
-52
-51
-54
-58
-54
-51
-55
-61
-61
-59
-58
-54
-53
-57
-57
-58
-58
-59
-58
-57
-60
-57
-54
-49
-55
-59
-61
-62
-63
-60
-61
-58
-58
-59
-58
-55
-57
-58
-62
-63
-61
-58
-56
-57
-54
-55
-52
-50
-53
-55
-54
-54
-53
-49
-46
-44
-39
-35
-28
-22
-18
-18
-22
-27
-26
-22
-27
-31
-32
-36
-35
-34
-40
-40
-43
-48
-52
-50
-53
-58
-58
-61
-61
-59
-61
-63
-64
-67
-66
-64
-64
-62
-66
-69
-71
-65
-63
-63
-70
-72
-78
-82
-84
-79
-56
-14
40
99
170
226
247
218
157
96
45
4
-17
-38
-55
-61
-59
-59
-64
-67
-70
-74
-79
-81
-83
-85
-83
-81
-78
-81
-84
-86
-84
-80
-81
-81
-85
-87
-84
-86
-86
-86
-85
-84
-85
-84
-83
-83
-86
-85
-84
-81
-82
-84
-86
-84
-82
-80
-82
-83
-85
-85
-85
-82
-84
-85
-85
-82
-80
-81
-83
-82
-83
-81
-79
-72
-72
-73
-74
-74
-73
-72
-71
-70
-68
-70
-66
-61
-59
-60
-59
-59
-56
-51
-49
-48
-47
-46
-41
-36
-38
-37
-35
-33
-29
-29
-27
-29
-31
-31
-28
-25
-25
-25
-30
-31
-35
-34
-38
-39
-42
-44
-42
-41
-46
-53
-56
-59
-56
-54
-54
-55
-62
-63
-62
-62
-62
-64
-66
-66
-66
-65
-64
-65
-68
-68
-69
-65
-64
-66
-69
-70
-68
-61
-61
-64
-67
-67
-64
-59
-61
-60
-62
-66
-61
-59
-63
-62
-63
-63
-59
-56
-56
-59
-59
-60
-56
-56
-56
-58
-58
-59
-56
-54
-55
-57
-60
-60
-60
-58
-58
-58
-60
-63
-60
-58
-55
-59
-61
-63
-62
-58
-58
-57
-60
-61
-59
-57
-58
-59
-59
-60
-59
-56
-54
-55
-56
-56
-55
-53
-52
-51
-50
-52
-48
-47
-47
-47
-42
-36
-33
-24
-20
-21
-23
-28
-30
-27
-26
-29
-33
-39
-37
-36
-36
-40
-41
-42
-42
-47
-52
-56
-60
-58
-59
-58
-58
-62
-65
-64
-64
-60
-58
-59
-64
-64
-63
-62
-62
-63
-64
-67
-68
-69
-75
-81
-83
-79
-57
-17
32
83
143
200
240
236
184
126
74
29
-3
-16
-28
-42
-50
-49
-53
-58
-60
-66
-73
-79
-77
-77
-80
-80
-81
-82
-81
-80
-80
-79
-80
-86
-83
-79
-78
-79
-81
-81
-83
-80
-82
-83
-82
-83
-81
-78
-79
-81
-83
-84
-81
-79
-79
-80
-81
-81
-78
-77
-78
-79
-79
-82
-81
-77
-76
-79
-80
-82
-78
-77
-76
-77
-77
-75
-71
-66
-64
-68
-69
-70
-67
-63
-64
-64
-61
-59
-55
-53
-50
-50
-49
-47
-43
-40
-40
-39
-38
-36
-34
-27
-26
-24
-25
-23
-19
-18
-22
-22
-21
-18
-16
-17
-19
-23
-24
-26
-25
-25
-29
-33
-40
-41
-43
-40
-43
-49
-52
-55
-54
-53
-55
-58
-58
-61
-61
-58
-58
-62
-66
-67
-63
-60
-60
-64
-66
-66
-63
-64
-63
-66
-68
-67
-67
-65
-66
-66
-64
-64
-63
-64
-63
-63
-64
-63
-61
-62
-63
-62
-59
-63
-62
-60
-61
-62
-60
-62
-60
-60
-60
-57
-60
-59
-58
-57
-60
-57
-59
-61
-60
-56
-53
-56
-57
-59
-58
-57
-57
-60
-59
-59
-55
-56
-55
-57
-57
-59
-58
-57
-55
-58
-60
-59
-58
-58
-56
-58
-59
-58
-57
-54
-55
-56
-59
-57
-54
-50
-51
-51
-53
-53
-53
-47
-48
-48
-44
-39
-31
-24
-22
-20
-20
-24
-21
-21
-24
-27
-34
-34
-34
-32
-32
-35
-37
-44
-48
-49
-52
-53
-55
-57
-58
-58
-58
-59
-61
-64
-64
-60
-60
-60
-61
-65
-65
-62
-63
-65
-65
-67
-66
-69
-74
-74
-70
-48
-10
38
91
155
213
243
221
163
103
51
7
-11
-16
-21
-28
-35
-40
-47
-53
-60
-68
-75
-77
-78
-77
-77
-77
-78
-79
-80
-80
-79
-79
-78
-79
-83
-83
-76
-78
-78
-80
-80
-78
-78
-79
-81
-82
-81
-79
-76
-78
-78
-76
-79
-78
-75
-75
-77
-82
-83
-77
-74
-74
-81
-80
-80
-76
-75
-73
-72
-75
-77
-73
-71
-70
-71
-71
-70
-65
-66
-66
-61
-61
-61
-60
-58
-55
-53
-55
-52
-51
-45
-42
-41
-41
-37
-34
-30
-30
-29
-29
-28
-25
-21
-20
-19
-19
-20
-19
-21
-17
-18
-21
-25
-27
-27
-29
-34
-37
-41
-42
-41
-42
-50
-52
-54
-52
-51
-54
-57
-60
-63
-61
-58
-57
-59
-64
-63
-61
-62
-63
-67
-68
-68
-64
-64
-63
-65
-70
-69
-67
-67
-67
-67
-69
-70
-69
-66
-66
-64
-67
-69
-71
-66
-69
-65
-67
-67
-66
-61
-61
-64
-66
-67
-68
-65
-67
-66
-66
-67
-69
-61
-63
-65
-67
-69
-66
-61
-63
-66
-68
-68
-68
-65
-62
-64
-67
-66
-66
-64
-64
-67
-68
-68
-64
-65
-67
-67
-65
-66
-67
-62
-65
-66
-65
-69
-68
-67
-64
-66
-66
-68
-66
-65
-67
-62
-61
-64
-65
-61
-61
-60
-61
-60
-60
-57
-56
-59
-56
-50
-43
-37
-31
-29
-29
-31
-28
-30
-32
-34
-38
-41
-39
-41
-42
-47
-49
-52
-55
-56
-56
-61
-65
-66
-67
-65
-68
-71
-70
-70
-68
-67
-70
-75
-76
-76
-74
-73
-76
-76
-77
-79
-77
-75
-76
-78
-84
-89
-85
-78
-54
-20
22
75
141
199
223
197
138
77
31
-2
-19
-27
-37
-46
-47
-52
-58
-66
-77
-85
-89
-88
-88
-88
-89
-94
-91
-92
-93
-95
-97
-97
-93
-91
-92
-95
-96
-97
-95
-92
-92
-95
-94
-94
-93
-93
-93
-93
-91
-94
-94
-92
-90
-92
-95
-98
-95
-90
-91
-93
-94
-97
-92
-92
-95
-95
-93
-93
-89
-90
-90
-89
-89
-90
-90
-85
-82
-84
-82
-83
-81
-80
-78
-75
-75
-76
-73
-67
-67
-66
-65
-67
-64
-57
-53
-52
-52
-51
-46
-42
-42
-41
-41
-41
-35
-33
-34
-33
-34
-35
-34
-35
-36
-37
-40
-41
-40
-40
-41
-47
-51
-57
-57
-54
-57
-59
-63
-65
-64
-66
-66
-67
-71
-71
-70
-69
-70
-72
-75
-75
-74
-73
-72
-74
-78
-80
-76
-74
-72
-72
-77
-77
-75
-73
-73
-74
-74
-76
-74
-73
-72
-74
-76
-75
-72
-70
-70
-71
-75
-76
-76
-71
-69
-71
-71
-71
-70
-69
-69
-70
-72
-71
-71
-69
-69
-68
-70
-71
-70
-69
-67
-67
-68
-70
-69
-66
-67
-68
-69
-71
-74
-70
-68
-69
-69
-70
-69
-68
-67
-69
-71
-71
-70
-65
-65
-66
-66
-68
-67
-66
-67
-67
-68
-69
-71
-68
-64
-62
-63
-65
-62
-62
-60
-63
-64
-64
-61
-57
-56
-56
-58
-60
-57
-52
-46
-41
-39
-36
-31
-25
-24
-27
-30
-33
-30
-29
-30
-35
-36
-39
-40
-38
-41
-44
-48
-52
-52
-53
-56
-60
-62
-63
-62
-63
-63
-65
-65
-69
-64
-63
-64
-66
-66
-66
-66
-66
-66
-68
-69
-68
-65
-64
-65
-67
-73
-80
-72
-49
-16
26
71
124
180
221
219
177
125
77
37
4
-10
-22
-32
-41
-38
-41
-44
-51
-56
-64
-70
-73
-75
-75
-78
-83
-80
-76
-76
-79
-79
-82
-83
-80
-81
-78
-85
-84
-79
-76
-77
-78
-79
-79
-78
-76
-78
-76
-77
-78
-73
-75
-76
-77
-80
-79
-78
-73
-73
-74
-76
-78
-77
-76
-73
-72
-74
-77
-76
-72
-71
-68
-71
-71
-71
-71
-66
-66
-64
-64
-62
-61
-59
-59
-57
-58
-55
-51
-50
-48
-48
-47
-46
-43
-38
-37
-38
-37
-35
-29
-27
-29
-28
-28
-24
-21
-19
-19
-20
-19
-14
-12
-13
-15
-15
-20
-20
-19
-20
-23
-26
-27
-24
-25
-28
-34
-38
-38
-37
-36
-40
-42
-47
-49
-43
-43
-46
-49
-51
-53
-48
-49
-47
-47
-50
-50
-48
-47
-50
-52
-52
-54
-53
-50
-53
-54
-53
-53
-49
-47
-50
-48
-49
-52
-50
-49
-46
-48
-50
-52
-48
-46
-47
-46
-46
-51
-52
-48
-46
-48
-45
-46
-46
-45
-47
-45
-43
-44
-41
-42
-40
-42
-44
-45
-45
-41
-41
-44
-42
-42
-42
-40
-40
-41
-40
-41
-38
-37
-36
-38
-38
-42
-39
-37
-36
-38
-39
-41
-38
-34
-34
-33
-38
-39
-39
-38
-37
-36
-38
-38
-38
-36
-34
-35
-35
-34
-35
-31
-29
-34
-35
-33
-32
-28
-24
-25
-28
-28
-26
-20
-13
-9
-2
0
3
3
0
-2
-3
-7
-10
-9
-9
-10
-13
-18
-16
-14
-14
-18
-23
-29
-31
-30
-28
-30
-33
-35
-34
-34
-33
-35
-40
-37
-36
-35
-36
-39
-40
-42
-39
-33
-34
-35
-39
-43
-47
-50
-49
-51
-46
-28
10
51
99
152
207
245
251
217
167
118
74
37
21
12
1
-12
-11
-14
-18
-21
-27
-37
-43
-46
-44
-44
-43
-49
-51
-51
-52
-51
-51
-52
-54
-55
-50
-48
-49
-51
-52
-55
-54
-52
-51
-50
-50
-51
-50
-47
-47
-48
-50
-53
-52
-50
-49
-50
-51
-52
-50
-46
-43
-46
-46
-50
-47
-47
-49
-49
-51
-49
-46
-42
-40
-43
-44
-45
-46
-43
-40
-37
-38
-39
-38
-36
-33
-31
-32
-32
-30
-27
-23
-22
-22
-22
-20
-14
-11
-8
-10
-10
-8
-4
0
0
1
0
4
6
7
2
5
6
9
12
12
12
7
8
9
9
7
3
-1
-5
-6
-4
-10
-13
-13
-16
-15
-17
-22
-22
-25
-27
-29
-27
-24
-26
-27
-30
-32
-32
-30
-30
-30
-29
-29
-31
-31
-32
-34
-35
-35
-32
-29
-32
-32
-36
-33
-31
-30
-32
-36
-34
-35
-33
-30
-28
-28
-31
-36
-32
-29
-26
-27
-31
-31
-28
-26
-28
-28
-30
-30
-27
-27
-27
-27
-29
-29
-26
-24
-27
-29
-29
-28
-25
-27
-27
-28
-32
-30
-29
-26
-27
-29
-32
-29
-26
-23
-23
-24
-24
-26
-25
-29
-28
-27
-27
-28
-26
-25
-23
-25
-27
-28
-26
-25
-25
-27
-27
-26
-26
-25
-23
-23
-24
-23
-21
-20
-20
-19
-22
-23
-18
-14
-9
-6
-5
2
3
8
6
2
-1
-2
0
-1
-3
-4
-8
-12
-12
-13
-14
-19
-21
-24
-22
-26
-30
-32
-36
-34
-32
-32
-32
-37
-41
-40
-34
-34
-36
-39
-42
-40
-40
-38
-38
-38
-40
-39
-43
-48
-53
-50
-51
-40
-12
24
65
115
175
228
245
222
167
116
70
36
16
13
5
-5
-14
-14
-19
-22
-32
-40
-47
-50
-47
-48
-48
-51
-51
-53
-52
-53
-51
-51
-56
-56
-56
-55
-54
-54
-56
-55
-57
-55
-56
-56
-58
-55
-54
-51
-52
-54
-59
-58
-55
-51
-49
-53
-56
-53
-56
-56
-54
-56
-56
-57
-55
-53
-53
-54
-58
-54
-51
-49
-50
-50
-55
-52
-49
-45
-48
-49
-50
-49
-46
-44
-45
-44
-41
-37
-34
-35
-36
-36
-34
-31
-27
-24
-24
-24
-24
-19
-15
-14
-14
-13
-13
-9
-7
-5
-3
-3
-3
-4
-2
-1
2
0
-2
-2
-3
-5
-4
-6
-10
-13
-15
-15
-17
-21
-25
-24
-24
-25
-30
-32
-36
-37
-35
-34
-35
-39
-42
-42
-42
-41
-42
-43
-43
-41
-41
-40
-42
-47
-47
-45
-43
-42
-45
-45
-48
-45
-44
-42
-43
-44
-44
-46
-45
-43
-41
-42
-41
-43
-39
-38
-37
-39
-44
-45
-42
-39
-38
-41
-43
-41
-40
-40
-39
-43
-45
-45
-41
-41
-40
-43
-44
-44
-44
-42
-46
-46
-48
-43
-43
-44
-45
-45
-47
-44
-41
-41
-42
-45
-49
-47
-47
-45
-44
-45
-46
-45
-43
-40
-43
-45
-48
-47
-47
-45
-48
-44
-40
-39
-40
-39
-38
-38
-39
-39
-38
-38
-33
-32
-30
-22
-13
-8
-8
-10
-14
-14
-15
-10
-15
-19
-21
-22
-22
-23
-27
-30
-34
-36
-38
-42
-47
-48
-46
-48
-45
-46
-46
-49
-54
-51
-52
-51
-54
-54
-54
-52
-51
-53
-55
-55
-55
-56
-59
-61
-64
-69
-68
-61
-35
1
43
91
151
202
215
182
125
72
32
7
-1
-9
-21
-26
-31
-35
-41
-47
-55
-64
-70
-68
-65
-65
-66
-70
-74
-72
-69
-69
-70
-72
-75
-74
-72
-72
-73
-75
-75
-77
-73
-72
-71
-73
-76
-75
-72
-71
-71
-69
-75
-74
-71
-69
-71
-75
-76
-70
-70
-69
-71
-76
-75
-75
-71
-70
-72
-72
-72
-73
-70
-64
-65
-67
-70
-67
-64
-61
-64
-68
-72
-66
-62
-58
-57
-55
-55
-54
-54
-51
-45
-45
-48
-42
-38
-35
-34
-36
-36
-32
-28
-25
-24
-25
-26
-24
-21
-17
-20
-20
-26
-24
-22
-23
-25
-30
-34
-34
-30
-31
-35
-41
-45
-45
-46
-49
-50
-51
-56
-58
-58
-53
-52
-57
-57
-57
-55
-58
-60
-64
-61
-60
-58
-58
-57
-60
-62
-65
-63
-58
-56
-58
-61
-61
-57
-57
-57
-59
-60
-59
-59
-55
-57
-55
-56
-55
-54
-54
-53
-58
-57
-56
-51
-51
-52
-56
-56
-53
-52
-52
-55
-54
-53
-53
-53
-50
-52
-54
-56
-55
-53
-52
-54
-54
-59
-60
-57
-53
-53
-56
-58
-57
-55
-52
-54
-54
-55
-56
-53
-54
-55
-55
-59
-56
-55
-54
-54
-53
-57
-58
-52
-50
-50
-52
-52
-52
-52
-48
-47
-48
-52
-51
-44
-37
-32
-27
-24
-21
-22
-23
-27
-28
-30
-30
-27
-29
-33
-38
-43
-40
-39
-40
-44
-49
-56
-57
-54
-54
-58
-61
-61
-59
-59
-58
-59
-61
-64
-65
-62
-61
-62
-66
-68
-67
-65
-65
-66
-73
-77
-71
-47
-7
43
97
157
205
203
159
101
48
10
-8
-19
-28
-32
-36
-43
-50
-56
-60
-67
-72
-80
-77
-73
-71
-73
-75
-78
-79
-75
-74
-73
-77
-79
-78
-75
-70
-70
-74
-77
-79
-77
-77
-75
-75
-80
-79
-76
-71
-71
-75
-78
-77
-75
-72
-73
-75
-76
-77
-76
-75
-75
-73
-75
-74
-71
-72
-74
-73
-73
-70
-69
-67
-66
-66
-67
-67
-63
-60
-62
-65
-65
-61
-57
-57
-55
-54
-54
-50
-46
-45
-45
-43
-41
-38
-37
-37
-34
-32
-31
-30
-26
-24
-22
-21
-25
-24
-19
-16
-16
-19
-24
-27
-26
-23
-27
-32
-34
-36
-35
-37
-42
-49
-49
-47
-48
-47
-49
-52
-55
-54
-52
-54
-54
-56
-58
-59
-56
-56
-56
-55
-59
-61
-61
-61
-61
-60
-61
-63
-60
-57
-55
-59
-62
-62
-60
-57
-58
-59
-59
-59
-60
-59
-57
-58
-61
-59
-56
-56
-58
-58
-59
-58
-54
-54
-54
-56
-57
-56
-55
-51
-55
-57
-59
-57
-53
-54
-55
-54
-56
-56
-55
-51
-49
-51
-55
-55
-56
-55
-54
-52
-55
-55
-53
-52
-53
-55
-57
-57
-56
-53
-53
-56
-57
-56
-54
-52
-53
-53
-54
-54
-52
-50
-51
-49
-49
-53
-51
-47
-48
-49
-51
-48
-42
-35
-31
-29
-24
-23
-22
-23
-24
-26
-29
-31
-32
-37
-38
-40
-43
-42
-41
-43
-49
-57
-60
-58
-57
-57
-60
-63
-65
-64
-62
-61
-64
-66
-69
-68
-66
-66
-68
-69
-69
-69
-67
-72
-76
-79
-82
-71
-41
3
55
112
169
205
197
148
92
38
0
-17
-23
-32
-38
-42
-51
-57
-64
-68
-75
-79
-80
-82
-80
-79
-79
-83
-86
-83
-84
-81
-84
-86
-87
-84
-80
-80
-82
-83
-85
-83
-83
-83
-82
-81
-83
-83
-85
-82
-80
-80
-81
-83
-84
-83
-82
-84
-85
-80
-80
-79
-81
-82
-83
-85
-80
-78
-75
-79
-81
-78
-79
-80
-74
-71
-72
-71
-70
-69
-66
-68
-70
-67
-62
-60
-56
-56
-55
-51
-48
-47
-44
-44
-43
-41
-38
-34
-33
-33
-32
-28
-26
-24
-26
-27
-30
-28
-24
-20
-23
-26
-29
-32
-33
-33
-39
-42
-44
-45
-47
-47
-49
-55
-58
-60
-60
-61
-61
-62
-66
-65
-65
-63
-63
-63
-67
-68
-67
-69
-66
-68
-71
-67
-68
-66
-68
-66
-69
-69
-68
-69
-67
-67
-69
-70
-69
-68
-71
-69
-71
-70
-66
-68
-66
-66
-66
-63
-63
-63
-65
-68
-72
-66
-65
-61
-61
-62
-66
-67
-64
-63
-63
-62
-63
-63
-62
-62
-62
-63
-64
-65
-63
-63
-62
-65
-66
-64
-61
-59
-62
-64
-66
-66
-63
-61
-62
-61
-62
-62
-62
-61
-60
-61
-63
-63
-62
-59
-60
-59
-63
-62
-60
-58
-55
-55
-60
-57
-54
-51
-53
-53
-54
-53
-48
-42
-38
-34
-30
-27
-26
-24
-26
-27
-27
-28
-28
-29
-30
-36
-39
-43
-41
-39
-43
-49
-56
-59
-57
-57
-57
-59
-64
-66
-68
-63
-61
-64
-68
-68
-66
-65
-66
-65
-68
-68
-65
-66
-68
-71
-74
-78
-80
-74
-57
-26
15
66
126
184
222
217
172
116
65
24
-3
-13
-24
-30
-33
-38
-44
-51
-60
-64
-68
-72
-72
-75
-76
-79
-78
-77
-78
-79
-81
-80
-79
-75
-76
-80
-83
-81
-77
-75
-77
-79
-83
-83
-82
-77
-73
-72
-75
-78
-76
-74
-73
-76
-77
-74
-75
-74
-71
-75
-78
-77
-76
-75
-75
-77
-79
-77
-72
-67
-71
-75
-76
-72
-70
-68
-68
-69
-68
-67
-65
-62
-63
-62
-66
-64
-60
-58
-58
-57
-58
-56
-52
-49
-47
-50
-48
-45
-42
-39
-35
-34
-36
-35
-31
-28
-27
-25
-27
-24
-20
-20
-19
-18
-18
-19
-18
-17
-19
-24
-28
-26
-24
-27
-27
-32
-36
-40
-41
-39
-42
-44
-46
-46
-48
-50
-50
-55
-56
-57
-57
-52
-52
-56
-60
-60
-58
-58
-58
-61
-62
-62
-61
-58
-60
-63
-64
-61
-63
-61
-63
-63
-66
-67
-60
-58
-58
-58
-62
-63
-63
-61
-58
-59
-59
-62
-59
-58
-58
-60
-59
-62
-58
-57
-58
-58
-59
-60
-56
-58
-56
-59
-58
-59
-57
-55
-56
-55
-60
-60
-58
-56
-56
-56
-59
-59
-60
-59
-60
-60
-61
-59
-57
-54
-53
-57
-60
-59
-57
-54
-57
-57
-61
-56
-54
-52
-56
-58
-58
-55
-56
-52
-50
-51
-53
-54
-50
-47
-47
-50
-49
-45
-40
-35
-30
-29
-27
-21
-22
-21
-23
-23
-28
-29
-29
-28
-29
-34
-36
-37
-33
-36
-37
-43
-47
-51
-53
-49
-52
-55
-57
-57
-56
-57
-59
-61
-63
-62
-60
-59
-60
-64
-65
-63
-65
-61
-61
-66
-67
-69
-69
-71
-72
-74
-70
-47
-10
34
81
134
182
211
202
160
111
66
22
-4
-14
-17
-26
-34
-38
-41
-45
-49
-55
-65
-72
-72
-70
-70
-71
-76
-78
-78
-75
-72
-74
-74
-77
-77
-77
-77
-74
-74
-76
-75
-78
-76
-75
-76
-78
-77
-76
-75
-76
-79
-77
-77
-76
-74
-74
-78
-80
-79
-75
-71
-71
-76
-79
-78
-76
-76
-75
-75
-76
-77
-73
-71
-73
-71
-74
-72
-71
-67
-68
-69
-69
-69
-68
-62
-63
-65
-64
-62
-61
-58
-58
-55
-55
-54
-49
-48
-44
-46
-46
-43
-40
-36
-35
-34
-33
-33
-28
-24
-23
-23
-25
-20
-20
-19
-16
-15
-17
-19
-18
-18
-20
-21
-25
-25
-25
-26
-28
-32
-38
-41
-39
-38
-42
-45
-48
-51
-51
-47
-47
-51
-53
-55
-55
-53
-55
-54
-56
-57
-54
-54
-54
-54
-57
-59
-58
-54
-56
-58
-58
-60
-59
-55
-57
-59
-59
-59
-57
-55
-54
-55
-56
-57
-54
-55
-53
-54
-54
-55
-54
-49
-51
-53
-55
-58
-54
-53
-52
-55
-53
-52
-49
-48
-50
-52
-55
-57
-55
-52
-50
-54
-55
-53
-54
-50
-51
-55
-54
-56
-53
-52
-52
-54
-55
-55
-52
-50
-53
-54
-54
-57
-52
-51
-53
-53
-53
-52
-53
-50
-50
-51
-51
-48
-48
-46
-47
-46
-41
-39
-33
-25
-20
-19
-20
-25
-22
-22
-22
-25
-29
-30
-30
-31
-32
-33
-36
-37
-39
-41
-44
-49
-55
-55
-54
-54
-55
-57
-60
-59
-59
-55
-59
-62
-62
-61
-61
-61
-63
-63
-65
-63
-62
-61
-62
-66
-73
-78
-74
-69
-54
-28
10
55
106
163
205
210
175
123
76
38
4
-11
-18
-26
-30
-32
-35
-42
-49
-55
-59
-61
-67
-69
-72
-71
-73
-72
-74
-79
-78
-78
-76
-74
-75
-76
-78
-79
-76
-75
-78
-77
-80
-78
-75
-73
-76
-79
-80
-80
-78
-77
-77
-79
-79
-80
-79
-74
-73
-75
-77
-79
-77
-73
-74
-77
-79
-77
-75
-71
-74
-75
-75
-76
-78
-72
-71
-70
-71
-72
-67
-65
-66
-67
-67
-69
-69
-63
-63
-62
-61
-60
-60
-55
-53
-52
-51
-50
-48
-47
-46
-43
-41
-38
-36
-33
-32
-31
-32
-30
-28
-25
-21
-22
-21
-19
-17
-17
-18
-18
-22
-22
-22
-21
-24
-26
-28
-32
-32
-33
-35
-38
-42
-44
-44
-43
-46
-50
-51
-53
-52
-52
-55
-56
-57
-58
-53
-52
-55
-57
-58
-60
-59
-58
-59
-60
-59
-62
-57
-57
-59
-61
-62
-61
-60
-58
-57
-59
-62
-62
-60
-59
-58
-61
-62
-61
-60
-58
-56
-57
-60
-60
-59
-55
-58
-55
-57
-56
-56
-53
-54
-53
-54
-55
-53
-53
-52
-54
-55
-55
-54
-52
-54
-55
-56
-57
-54
-54
-55
-54
-55
-56
-54
-52
-53
-53
-56
-54
-53
-54
-55
-54
-57
-57
-55
-51
-50
-50
-52
-53
-52
-49
-50
-49
-49
-48
-46
-49
-47
-44
-41
-34
-25
-20
-18
-19
-23
-27
-25
-22
-24
-28
-32
-33
-33
-30
-34
-36
-39
-43
-43
-46
-49
-54
-53
-56
-59
-57
-57
-59
-62
-63
-60
-60
-61
-62
-63
-63
-62
-61
-62
-61
-63
-68
-70
-73
-76
-72
-64
-32
11
61
119
176
205
187
136
82
35
2
-9
-15
-23
-31
-35
-37
-43
-52
-59
-65
-69
-72
-71
-74
-74
-73
-73
-75
-77
-76
-77
-74
-79
-77
-77
-76
-76
-73
-76
-79
-80
-80
-75
-75
-73
-76
-78
-81
-77
-75
-75
-75
-79
-80
-78
-76
-77
-78
-79
-78
-77
-76
-78
-77
-79
-76
-74
-73
-73
-75
-75
-75
-73
-71
-69
-70
-73
-73
-69
-65
-66
-65
-65
-65
-62
-58
-57
-57
-56
-55
-52
-49
-49
-47
-50
-49
-41
-37
-35
-34
-36
-34
-30
-32
-29
-29
-30
-29
-27
-24
-22
-22
-24
-23
-23
-23
-22
-25
-29
-30
-30
-29
-31
-35
-38
-40
-41
-42
-46
-46
-50
-50
-51
-49
-52
-53
-53
-57
-57
-54
-54
-54
-57
-60
-56
-53
-56
-55
-59
-59
-61
-57
-59
-58
-60
-61
-61
-57
-55
-58
-59
-60
-59
-57
-56
-58
-60
-59
-59
-57
-56
-56
-57
-57
-56
-55
-54
-55
-58
-56
-55
-53
-52
-54
-55
-59
-56
-53
-55
-56
-58
-57
-57
-54
-57
-57
-58
-59
-57
-57
-55
-57
-55
-59
-57
-55
-56
-57
-59
-60
-59
-59
-58
-57
-58
-59
-57
-57
-55
-55
-55
-57
-56
-55
-58
-60
-62
-62
-58
-54
-53
-56
-57
-55
-50
-49
-48
-48
-51
-46
-40
-33
-31
-26
-25
-27
-27
-25
-26
-28
-32
-33
-30
-32
-35
-38
-41
-43
-44
-42
-46
-49
-55
-57
-56
-56
-59
-64
-64
-62
-61
-62
-63
-64
-63
-67
-63
-63
-63
-65
-64
-65
-65
-66
-68
-71
-73
-72
-69
-48
-15
26
69
124
179
200
173
119
65
15
-15
-25
-31
-40
-49
-52
-58
-56
-60
-67
-77
-79
-78
-75
-79
-81
-82
-84
-83
-81
-83
-84
-84
-83
-84
-82
-82
-84
-86
-86
-85
-84
-82
-86
-88
-91
-87
-82
-83
-83
-86
-89
-90
-87
-84
-83
-86
-89
-86
-83
-85
-87
-88
-89
-84
-84
-85
-85
-89
-89
-85
-82
-82
-81
-82
-82
-78
-80
-77
-78
-79
-79
-78
-75
-70
-72
-72
-72
-66
-68
-65
-64
-63
-62
-61
-58
-57
-56
-54
-54
-51
-48
-48
-51
-50
-46
-41
-41
-42
-44
-42
-43
-40
-40
-39
-43
-43
-44
-43
-48
-44
-46
-52
-55
-57
-57
-54
-57
-60
-63
-60
-62
-66
-66
-68
-65
-64
-66
-70
-70
-73
-72
-72
-70
-69
-70
-74
-73
-75
-74
-74
-73
-74
-76
-73
-73
-73
-74
-77
-78
-75
-73
-74
-76
-77
-76
-72
-70
-74
-73
-74
-74
-70
-69
-71
-75
-76
-75
-72
-69
-72
-73
-73
-73
-72
-71
-68
-70
-72
-74
-71
-69
-67
-69
-73
-75
-73
-72
-71
-72
-74
-76
-74
-73
-72
-73
-73
-79
-72
-70
-75
-76
-77
-75
-74
-73
-73
-75
-76
-76
-76
-73
-73
-74
-75
-77
-74
-72
-71
-75
-75
-73
-69
-66
-68
-66
-69
-68
-67
-65
-63
-64
-64
-65
-58
-48
-43
-40
-40
-42
-41
-40
-41
-44
-50
-52
-50
-51
-56
-56
-58
-62
-63
-64
-70
-71
-72
-75
-74
-76
-80
-80
-80
-80
-79
-78
-77
-80
-82
-83
-81
-80
-81
-81
-84
-88
-87
-91
-93
-91
-78
-42
5
59
119
179
208
183
123
64
12
-24
-38
-41
-52
-56
-59
-64
-71
-76
-82
-86
-89
-89
-90
-91
-90
-89
-90
-91
-92
-92
-91
-90
-91
-89
-92
-93
-92
-90
-90
-92
-95
-96
-91
-91
-89
-92
-94
-93
-91
-88
-89
-90
-93
-95
-90
-91
-93
-91
-94
-93
-91
-90
-91
-89
-91
-92
-90
-88
-88
-86
-88
-89
-88
-86
-86
-84
-82
-82
-78
-76
-76
-74
-73
-75
-69
-67
-65
-64
-65
-63
-61
-57
-56
-53
-52
-49
-47
-46
-46
-45
-44
-45
-42
-41
-39
-38
-35
-40
-37
-37
-40
-38
-41
-43
-44
-44
-46
-51
-54
-57
-57
-59
-61
-64
-64
-65
-64
-65
-65
-66
-72
-74
-71
-70
-71
-72
-75
-75
-74
-74
-74
-76
-77
-79
-75
-73
-73
-75
-79
-77
-77
-75
-74
-71
-75
-78
-74
-72
-72
-76
-74
-77
-73
-72
-73
-76
-76
-74
-70
-67
-69
-70
-72
-74
-73
-68
-68
-68
-70
-71
-68
-66
-69
-69
-73
-72
-70
-69
-69
-71
-70
-68
-68
-66
-67
-65
-68
-70
-68
-68
-68
-71
-71
-70
-68
-67
-65
-67
-67
-69
-69
-69
-68
-70
-72
-70
-67
-65
-66
-68
-71
-71
-68
-64
-64
-66
-68
-70
-69
-67
-66
-65
-67
-70
-68
-65
-63
-64
-64
-66
-63
-62
-60
-61
-59
-59
-55
-53
-54
-54
-53
-49
-41
-34
-30
-28
-30
-36
-33
-32
-31
-37
-40
-43
-44
-44
-46
-48
-49
-51
-51
-52
-55
-61
-64
-66
-66
-62
-64
-65
-67
-67
-66
-63
-64
-67
-70
-70
-69
-67
-67
-69
-75
-73
-71
-71
-73
-76
-81
-80
-60
-23
24
78
143
203
230
208
152
90
34
-5
-19
-22
-29
-35
-41
-47
-52
-59
-65
-71
-81
-83
-79
-76
-77
-81
-82
-85
-85
-84
-85
-84
-84
-87
-87
-85
-82
-82
-84
-87
-86
-83
-85
-85
-83
-87
-86
-84
-82
-88
-89
-90
-87
-84
-83
-83
-84
-85
-83
-83
-82
-84
-83
-85
-85
-80
-82
-85
-84
-82
-80
-78
-78
-78
-80
-78
-74
-71
-69
-70
-72
-72
-68
-63
-61
-64
-62
-64
-59
-55
-51
-53
-50
-50
-48
-44
-43
-43
-43
-41
-38
-36
-35
-34
-34
-37
-33
-33
-31
-33
-34
-33
-30
-31
-31
-37
-40
-44
-45
-45
-45
-49
-53
-58
-56
-56
-58
-59
-58
-63
-64
-64
-64
-65
-65
-70
-67
-68
-67
-67
-69
-71
-69
-68
-67
-71
-70
-71
-71
-70
-68
-71
-73
-72
-70
-69
-69
-69
-70
-70
-71
-69
-66
-69
-68
-70
-70
-69
-68
-69
-71
-70
-67
-67
-68
-69
-72
-71
-70
-69
-69
-68
-71
-71
-69
-68
-69
-70
-72
-73
-74
-73
-72
-73
-74
-76
-74
-72
-71
-74
-76
-77
-76
-74
-75
-74
-76
-78
-77
-75
-76
-76
-76
-79
-76
-76
-78
-78
-79
-79
-77
-75
-75
-77
-78
-80
-82
-81
-78
-78
-81
-82
-81
-80
-79
-81
-84
-83
-83
-82
-82
-78
-77
-82
-81
-79
-77
-77
-80
-82
-77
-73
-74
-74
-75
-78
-77
-76
-71
-66
-59
-54
-48
-44
-47
-49
-50
-55
-55
-53
-55
-57
-59
-61
-64
-63
-64
-66
-69
-75
-76
-78
-82
-84
-86
-87
-86
-87
-85
-86
-89
-90
-91
-89
-87
-89
-90
-91
-90
-90
-91
-93
-94
-93
-92
-91
-93
-99
-102
-101
-92
-62
-23
24
75
135
183
193
152
83
18
-35
-54
-55
-63
-72
-80
-81
-84
-88
-91
-98
-103
-103
-103
-102
-102
-105
-106
-109
-106
-105
-104
-107
-107
-109
-108
-103
-102
-104
-108
-110
-109
-106
-107
-104
-106
-107
-107
-104
-103
-101
-106
-109
-109
-105
-102
-102
-102
-104
-103
-102
-99
-103
-105
-107
-103
-101
-99
-103
-102
-103
-102
-99
-97
-99
-99
-100
-98
-96
-93
-94
-95
-92
-89
-86
-84
-84
-85
-84
-81
-77
-73
-73
-73
-72
-70
-68
-65
-62
-63
-61
-60
-58
-59
-58
-57
-59
-55
-53
-55
-55
-55
-55
-57
-57
-54
-58
-61
-65
-67
-68
-68
-71
-73
-75
-74
-72
-72
-78
-80
-82
-84
-82
-81
-83
-84
-88
-86
-85
-86
-87
-87
-90
-87
-86
-85
-86
-90
-91
-89
-87
-86
-88
-90
-93
-91
-86
-85
-86
-86
-88
-85
-86
-84
-85
-84
-87
-87
-86
-84
-83
-86
-89
-88
-84
-84
-83
-85
-86
-87
-86
-86
-89
-88
-88
-86
-86
-84
-87
-89
-90
-86
-88
-87
-88
-87
-89
-90
-89
-89
-90
-88
-90
-89
-89
-88
-88
-91
-94
-91
-88
-89
-91
-92
-94
-95
-92
-90
-91
-91
-92
-91
-92
-94
-93
-95
-94
-92
-96
-95
-95
-97
-98
-96
-93
-93
-93
-93
-96
-95
-94
-95
-97
-96
-99
-98
-96
-96
-97
-96
-98
-97
-96
-94
-93
-93
-94
-92
-89
-91
-92
-88
-91
-87
-87
-84
-84
-82
-78
-73
-64
-62
-61
-66
-70
-68
-69
-69
-70
-73
-77
-76
-77
-76
-78
-80
-85
-86
-86
-88
-93
-96
-98
-99
-98
-97
-98
-101
-104
-104
-104
-101
-100
-102
-107
-106
-105
-104
-104
-105
-107
-105
-105
-105
-109
-113
-117
-119
-114
-101
-75
-37
5
56
113
168
192
175
119
60
6
-37
-62
-74
-84
-95
-99
-99
-103
-107
-112
-114
-117
-117
-120
-119
-122
-119
-120
-119
-121
-119
-122
-122
-122
-119
-120
-123
-125
-123
-119
-120
-121
-123
-123
-123
-121
-118
-120
-120
-123
-121
-119
-119
-119
-119
-123
-121
-120
-120
-120
-121
-122
-123
-118
-118
-117
-119
-120
-119
-118
-115
-114
-117
-117
-115
-115
-113
-112
-110
-114
-112
-110
-106
-106
-109
-109
-106
-102
-100
-100
-100
-99
-99
-94
-91
-90
-90
-90
-87
-85
-83
-80
-81
-79
-79
-74
-73
-72
-71
-72
-70
-66
-64
-65
-68
-71
-71
-68
-64
-67
-70
-73
-74
-74
-75
-76
-78
-85
-85
-84
-86
-88
-89
-93
-91
-90
-90
-93
-96
-97
-97
-95
-93
-93
-97
-100
-100
-97
-94
-100
-102
-102
-101
-98
-96
-99
-99
-100
-97
-94
-95
-97
-97
-103
-100
-98
-95
-95
-94
-97
-96
-94
-92
-90
-92
-95
-93
-92
-90
-90
-93
-94
-95
-91
-89
-89
-90
-93
-94
-94
-92
-93
-93
-94
-91
-91
-89
-91
-93
-94
-94
-90
-91
-90
-93
-96
-95
-92
-90
-90
-93
-94
-92
-91
-91
-91
-95
-95
-94
-93
-91
-91
-93
-96
-95
-93
-91
-94
-94
-93
-93
-90
-91
-92
-93
-95
-94
-92
-93
-95
-93
-94
-94
-93
-93
-91
-93
-94
-95
-91
-91
-90
-97
-98
-94
-91
-90
-92
-93
-95
-93
-91
-87
-88
-87
-89
-89
-85
-84
-83
-83
-87
-85
-83
-80
-78
-74
-69
-64
-57
-54
-55
-59
-65
-64
-63
-63
-65
-68
-71
-73
-73
-74
-73
-77
-81
-83
-85
-91
-90
-94
-95
-94
-94
-94
-94
-96
-98
-99
-100
-97
-98
-101
-102
-101
-101
-98
-99
-101
-103
-103
-102
-105
-107
-112
-112
-106
-86
-54
-5
40
95
156
199
199
155
97
41
-8
-42
-57
-61
-69
-81
-86
-85
-88
-91
-101
-108
-111
-109
-109
-112
-109
-114
-113
-112
-112
-111
-114
-117
-117
-116
-115
-117
-116
-115
-114
-114
-113
-114
-115
-117
-117
-115
-113
-110
-114
-117
-117
-113
-112
-110
-113
-115
-114
-113
-108
-109
-114
-113
-113
-109
-109
-110
-107
-111
-110
-110
-106
-105
-106
-107
-107
-107
-104
-102
-105
-105
-102
-99
-98
-99
-99
-101
-97
-95
-89
-89
-91
-90
-88
-86
-83
-82
-83
-82
-78
-75
-72
-72
-73
-72
-71
-65
-66
-66
-64
-66
-62
-59
-57
-57
-59
-62
-62
-59
-61
-64
-63
-66
-65
-66
-67
-68
-73
-76
-77
-78
-78
-82
-85
-86
-87
-87
-87
-88
-92
-93
-93
-91
-92
-93
-91
-95
-94
-94
-93
-94
-95
-97
-97
-94
-94
-93
-94
-95
-93
-93
-90
-91
-92
-93
-94
-93
-90
-92
-91
-95
-93
-90
-89
-90
-90
-93
-91
-89
-88
-89
-92
-91
-89
-89
-87
-89
-92
-93
-93
-89
-92
-87
-91
-94
-92
-91
-89
-88
-91
-93
-91
-90
-89
-88
-89
-88
-92
-92
-89
-89
-93
-93
-92
-88
-90
-87
-90
-93
-92
-91
-89
-89
-89
-93
-93
-91
-90
-90
-92
-93
-93
-90
-87
-88
-94
-95
-94
-93
-90
-88
-93
-93
-91
-90
-90
-90
-91
-93
-92
-93
-93
-93
-90
-92
-92
-93
-89
-91
-92
-94
-93
-90
-90
-90
-92
-94
-95
-90
-89
-91
-91
-92
-92
-91
-89
-88
-88
-89
-87
-85
-84
-85
-85
-87
-84
-84
-82
-79
-78
-76
-68
-59
-54
-52
-56
-61
-61
-59
-59
-60
-62
-66
-67
-68
-67
-70
-70
-76
-77
-80
-81
-86
-87
-92
-90
-91
-90
-90
-93
-95
-94
-91
-93
-93
-97
-97
-98
-97
-92
-95
-98
-101
-97
-95
-93
-98
-103
-109
-108
-104
-95
-73
-41
-1
50
109
162
191
183
139
81
32
-10
-39
-52
-59
-66
-69
-73
-77
-85
-92
-96
-99
-100
-100
-101
-105
-105
-104
-104
-106
-105
-109
-109
-108
-105
-107
-109
-111
-109
-109
-107
-108
-110
-109
-111
-110
-107
-105
-108
-110
-109
-108
-106
-107
-107
-108
-107
-106
-105
-104
-106
-108
-107
-106
-104
-105
-106
-108
-105
-106
-103
-105
-102
-105
-103
-100
-98
-99
-99
-101
-100
-98
-94
-94
-94
-95
-93
-91
-86
-88
-88
-87
-86
-82
-78
-77
-78
-79
-77
-72
-71
-68
-68
-69
-66
-63
-61
-59
-58
-60
-60
-56
-53
-51
-52
-54
-53
-51
-50
-51
-53
-54
-54
-54
-52
-54
-60
-62
-63
-63
-62
-63
-68
-70
-71
-71
-72
-74
-77
-82
-82
-79
-79
-80
-83
-84
-83
-81
-82
-82
-85
-87
-87
-87
-85
-85
-86
-87
-86
-84
-83
-82
-84
-87
-86
-84
-80
-81
-83
-84
-83
-81
-79
-80
-82
-82
-83
-81
-78
-79
-78
-81
-80
-78
-77
-78
-79
-82
-80
-78
-78
-76
-77
-77
-77
-76
-74
-75
-76
-82
-81
-80
-79
-78
-81
-82
-81
-79
-76
-76
-81
-82
-80
-79
-78
-79
-78
-81
-79
-81
-77
-77
-79
-79
-81
-77
-76
-78
-80
-82
-80
-77
-76
-75
-78
-82
-79
-77
-73
-78
-77
-79
-79
-80
-78
-76
-78
-80
-78
-75
-74
-75
-76
-79
-77
-77
-75
-73
-74
-74
-77
-79
-76
-75
-76
-78
-77
-73
-70
-71
-71
-74
-75
-70
-66
-66
-65
-70
-68
-67
-64
-59
-56
-52
-45
-39
-39
-42
-45
-48
-50
-48
-51
-51
-54
-54
-57
-57
-56
-59
-65
-66
-66
-68
-69
-72
-74
-80
-78
-73
-74
-73
-76
-81
-80
-77
-75
-77
-79
-80
-82
-78
-79
-78
-81
-82
-81
-79
-82
-89
-92
-87
-64
-21
26
78
137
190
216
196
139
78
23
-20
-42
-49
-58
-65
-68
-72
-73
-75
-79
-87
-93
-94
-92
-90
-90
-90
-92
-95
-95
-91
-88
-89
-92
-98
-98
-97
-93
-92
-93
-94
-95
-94
-89
-91
-93
-95
-95
-94
-92
-92
-92
-96
-95
-92
-92
-89
-92
-94
-95
-93
-89
-90
-93
-94
-91
-89
-88
-86
-88
-90
-90
-87
-83
-79
-84
-86
-85
-83
-82
-78
-77
-78
-78
-77
-76
-73
-73
-73
-72
-65
-61
-62
-63
-65
-64
-59
-55
-55
-56
-56
-52
-49
-48
-49
-51
-51
-47
-44
-43
-44
-43
-46
-45
-43
-46
-44
-48
-52
-51
-50
-50
-52
-57
-60
-62
-62
-64
-63
-66
-70
-70
-70
-72
-73
-75
-76
-73
-70
-70
-73
-74
-78
-75
-75
-74
-72
-76
-75
-73
-74
-72
-72
-72
-76
-74
-71
-68
-72
-74
-74
-72
-69
-65
-69
-72
-73
-72
-69
-66
-67
-67
-71
-70
-69
-66
-68
-69
-69
-69
-65
-66
-66
-67
-73
-72
-67
-67
-66
-71
-73
-73
-74
-71
-69
-68
-69
-69
-71
-69
-71
-71
-73
-71
-70
-69
-73
-71
-72
-70
-71
-69
-69
-69
-72
-72
-71
-69
-70
-71
-71
-73
-70
-69
-67
-67
-70
-72
-71
-70
-68
-67
-72
-71
-69
-69
-68
-69
-74
-73
-69
-69
-69
-73
-76
-74
-71
-68
-69
-70
-69
-68
-66
-64
-62
-61
-66
-67
-64
-57
-56
-53
-53
-46
-41
-35
-32
-36
-42
-46
-43
-42
-43
-44
-50
-49
-50
-47
-52
-53
-56
-58
-61
-62
-65
-66
-69
-70
-69
-65
-67
-67
-71
-72
-70
-68
-69
-71
-71
-74
-69
-68
-68
-71
-75
-78
-80
-80
-77
-61
-28
20
78
145
205
232
211
151
88
32
-9
-29
-36
-46
-51
-50
-53
-58
-66
-68
-73
-74
-77
-78
-80
-85
-83
-82
-80
-84
-85
-84
-80
-80
-83
-84
-89
-85
-79
-78
-81
-82
-83
-82
-79
-81
-80
-84
-82
-80
-81
-79
-80
-83
-83
-82
-80
-80
-80
-81
-82
-80
-78
-79
-79
-78
-79
-79
-78
-77
-78
-77
-76
-74
-72
-71
-73
-71
-71
-70
-67
-67
-64
-64
-65
-60
-57
-56
-55
-55
-56
-53
-50
-48
-46
-46
-46
-44
-42
-37
-36
-35
-37
-35
-32
-32
-31
-30
-30
-30
-29
-29
-29
-31
-34
-34
-34
-36
-35
-40
-44
-45
-45
-48
-50
-52
-58
-56
-57
-56
-57
-59
-62
-65
-65
-62
-61
-65
-67
-67
-65
-65
-64
-67
-70
-67
-64
-64
-64
-70
-70
-67
-64
-61
-64
-66
-67
-64
-63
-60
-61
-64
-66
-64
-61
-61
-60
-62
-65
-62
-61
-60
-60
-62
-66
-64
-65
-62
-60
-61
-62
-60
-61
-58
-60
-61
-63
-62
-62
-59
-60
-61
-61
-64
-62
-59
-62
-62
-65
-63
-64
-58
-62
-63
-65
-65
-63
-61
-61
-62
-64
-65
-64
-62
-63
-63
-65
-64
-63
-63
-64
-66
-65
-65
-62
-62
-65
-65
-68
-66
-63
-63
-62
-63
-65
-66
-64
-63
-62
-66
-69
-65
-67
-63
-61
-64
-68
-69
-66
-62
-62
-65
-69
-68
-65
-63
-60
-63
-67
-68
-62
-59
-59
-59
-63
-58
-57
-55
-56
-55
-55
-50
-40
-32
-28
-29
-35
-34
-33
-29
-31
-36
-39
-43
-42
-44
-40
-45
-49
-53
-55
-56
-62
-66
-67
-67
-66
-65
-66
-69
-69
-71
-69
-69
-69
-69
-72
-72
-72
-68
-69
-71
-72
-73
-72
-72
-75
-81
-84
-82
-70
-42
-1
46
97
160
212
227
195
136
79
24
-10
-23
-31
-38
-46
-50
-53
-54
-61
-71
-79
-79
-79
-77
-79
-81
-85
-84
-83
-82
-85
-86
-87
-87
-85
-84
-84
-87
-88
-89
-88
-85
-85
-86
-89
-87
-87
-85
-87
-88
-88
-86
-84
-83
-86
-87
-86
-87
-85
-84
-86
-88
-88
-89
-84
-81
-83
-86
-83
-84
-82
-81
-81
-80
-83
-82
-79
-78
-77
-76
-77
-76
-73
-72
-70
-68
-71
-69
-67
-63
-60
-60
-62
-61
-59
-57
-53
-50
-48
-49
-46
-43
-44
-44
-42
-41
-38
-36
-37
-37
-42
-39
-39
-36
-36
-38
-40
-41
-41
-43
-44
-45
-49
-51
-53
-51
-53
-57
-61
-63
-63
-61
-64
-65
-67
-68
-69
-67
-68
-68
-70
-70
-68
-70
-69
-70
-72
-71
-69
-68
-68
-69
-71
-71
-69
-67
-67
-69
-71
-70
-69
-68
-66
-68
-69
-70
-68
-65
-64
-64
-66
-68
-67
-64
-65
-65
-69
-67
-68
-66
-66
-66
-68
-68
-65
-61
-63
-65
-68
-70
-66
-64
-62
-66
-70
-69
-69
-64
-67
-67
-70
-68
-67
-67
-67
-70
-69
-70
-69
-67
-69
-71
-70
-70
-68
-66
-68
-73
-70
-71
-69
-66
-71
-72
-69
-72
-73
-68
-70
-72
-72
-71
-71
-68
-69
-72
-68
-68
-67
-67
-69
-68
-71
-70
-70
-68
-68
-71
-71
-73
-71
-68
-69
-70
-72
-71
-69
-65
-66
-66
-66
-68
-66
-61
-61
-63
-65
-62
-61
-53
-52
-48
-43
-35
-29
-28
-32
-36
-35
-38
-37
-36
-37
-43
-46
-51
-49
-50
-52
-56
-62
-67
-67
-67
-66
-68
-69
-71
-69
-72
-71
-72
-76
-77
-77
-75
-75
-75
-77
-79
-77
-74
-72
-76
-80
-84
-86
-85
-87
-79
-62
-25
22
75
137
191
216
195
140
83
30
-16
-38
-47
-47
-54
-58
-62
-68
-73
-77
-79
-84
-86
-89
-92
-89
-88
-92
-92
-96
-95
-93
-90
-90
-93
-93
-92
-90
-89
-90
-91
-95
-93
-94
-87
-89
-89
-92
-91
-92
-89
-91
-91
-94
-95
-92
-90
-88
-90
-92
-91
-90
-87
-87
-89
-91
-94
-92
-91
-91
-92
-92
-90
-89
-88
-88
-86
-88
-88
-82
-80
-82
-82
-83
-83
-83
-80
-78
-79
-77
-76
-72
-70
-69
-67
-68
-67
-67
-63
-63
-63
-65
-63
-57
-54
-54
-53
-51
-53
-51
-47
-48
-47
-50
-52
-44
-43
-44
-46
-49
-47
-48
-46
-49
-53
-55
-56
-56
-59
-60
-61
-62
-66
-67
-68
-71
-73
-76
-76
-75
-76
-75
-78
-78
-82
-81
-77
-77
-80
-84
-85
-86
-79
-81
-81
-83
-84
-83
-80
-83
-80
-81
-81
-80
-80
-83
-85
-83
-83
-82
-81
-79
-80
-81
-82
-77
-74
-77
-78
-80
-81
-80
-76
-77
-77
-79
-81
-79
-78
-79
-79
-80
-80
-78
-77
-77
-84
-84
-83
-80
-79
-78
-84
-81
-83
-83
-80
-80
-82
-82
-83
-82
-78
-80
-80
-84
-86
-83
-81
-81
-83
-85
-86
-82
-82
-86
-84
-85
-85
-84
-82
-82
-84
-87
-89
-87
-84
-86
-86
-88
-86
-85
-83
-83
-86
-87
-89
-87
-84
-86
-86
-86
-85
-87
-86
-88
-88
-86
-86
-84
-80
-81
-82
-85
-85
-83
-79
-78
-82
-84
-84
-82
-78
-78
-78
-78
-73
-68
-59
-56
-56
-57
-61
-61
-59
-60
-63
-65
-69
-69
-69
-69
-74
-75
-78
-77
-77
-81
-84
-88
-91
-90
-92
-91
-91
-93
-95
-95
-88
-90
-95
-98
-94
-94
-93
-93
-96
-96
-97
-96
-94
-94
-96
-100
-105
-106
-107
-107
-99
-78
-43
3
52
108
166
198
191
147
93
40
-9
-40
-56
-62
-71
-79
-84
-85
-87
-90
-89
-97
-104
-109
-111
-109
-107
-107
-112
-113
-113
-109
-109
-109
-114
-116
-114
-111
-110
-111
-112
-115
-117
-113
-112
-112
-113
-114
-117
-113
-111
-111
-111
-115
-114
-111
-110
-110
-112
-111
-113
-110
-107
-110
-111
-111
-117
-111
-108
-107
-111
-111
-112
-109
-110
-106
-106
-107
-108
-106
-105
-104
-103
-103
-103
-100
-98
-97
-95
-97
-97
-93
-89
-89
-89
-90
-90
-84
-80
-81
-81
-81
-81
-78
-74
-72
-72
-75
-73
-69
-66
-66
-66
-66
-65
-62
-58
-59
-60
-61
-64
-63
-62
-61
-62
-63
-65
-64
-64
-66
-68
-69
-73
-75
-72
-75
-79
-78
-83
-80
-83
-85
-89
-90
-91
-88
-91
-91
-95
-95
-94
-92
-91
-92
-95
-96
-96
-96
-94
-93
-93
-97
-96
-93
-93
-93
-95
-94
-93
-92
-90
-92
-91
-93
-91
-89
-88
-90
-92
-92
-90
-89
-86
-86
-86
-86
-87
-86
-86
-88
-90
-90
-90
-86
-83
-82
-83
-87
-86
-84
-82
-83
-86
-88
-89
-87
-86
-85
-85
-88
-89
-85
-83
-85
-86
-87
-86
-87
-87
-87
-86
-89
-91
-87
-84
-85
-88
-89
-91
-88
-85
-85
-87
-89
-91
-87
-85
-86
-88
-89
-90
-90
-86
-86
-86
-87
-87
-87
-84
-86
-86
-86
-89
-89
-87
-85
-86
-90
-91
-87
-85
-85
-86
-87
-90
-88
-86
-85
-85
-84
-86
-85
-84
-84
-86
-84
-85
-83
-82
-81
-83
-83
-81
-78
-75
-75
-74
-77
-74
-73
-70
-69
-67
-65
-59
-51
-45
-43
-45
-49
-52
-50
-47
-50
-52
-55
-59
-56
-58
-59
-58
-61
-65
-68
-69
-72
-76
-80
-81
-78
-77
-76
-81
-82
-82
-81
-80
-82
-84
-86
-87
-83
-81
-80
-84
-83
-87
-87
-87
-91
-96
-101
-100
-81
-48
-7
38
90
146
199
221
202
150
92
37
-5
-29
-38
-44
-50
-57
-58
-60
-64
-72
-79
-87
-89
-89
-90
-91
-94
-98
-96
-94
-96
-97
-98
-98
-96
-93
-96
-99
-98
-100
-98
-94
-95
-94
-96
-97
-94
-93
-93
-93
-96
-95
-93
-92
-93
-96
-96
-95
-95
-93
-91
-92
-93
-92
-89
-89
-91
-90
-91
-93
-91
-89
-86
-88
-87
-88
-86
-89
-85
-84
-84
-82
-82
-80
-78
-78
-76
-75
-73
-72
-70
-70
-71
-68
-64
-60
-60
-60
-58
-57
-53
-51
-48
-48
-49
-48
-44
-43
-42
-42
-40
-42
-38
-38
-39
-38
-37
-37
-35
-34
-34
-35
-36
-40
-37
-38
-39
-41
-46
-48
-48
-48
-48
-51
-55
-57
-56
-55
-56
-60
-62
-63
-62
-62
-64
-64
-66
-66
-64
-63
-62
-63
-65
-66
-65
-62
-65
-67
-68
-66
-63
-63
-62
-64
-66
-67
-61
-59
-59
-63
-60
-62
-64
-61
-59
-57
-58
-60
-57
-55
-52
-54
-55
-57
-54
-53
-54
-54
-55
-54
-52
-49
-49
-53
-55
-54
-54
-49
-49
-51
-53
-53
-51
-51
-50
-53
-52
-55
-53
-51
-51
-52
-52
-53
-52
-50
-48
-50
-53
-53
-50
-50
-49
-50
-52
-53
-54
-50
-50
-48
-52
-54
-52
-49
-49
-51
-50
-52
-51
-50
-50
-53
-52
-50
-51
-49
-50
-50
-52
-51
-48
-47
-46
-46
-49
-49
-46
-45
-44
-45
-47
-50
-49
-45
-43
-47
-47
-48
-45
-43
-40
-39
-40
-38
-38
-37
-35
-36
-35
-29
-23
-16
-10
-9
-11
-12
-11
-11
-9
-13
-14
-18
-18
-20
-20
-22
-25
-29
-30
-34
-37
-40
-44
-43
-42
-44
-46
-45
-47
-49
-48
-46
-47
-47
-51
-54
-52
-49
-48
-50
-52
-52
-50
-51
-54
-58
-61
-63
-60
-43
-12
29
75
130
192
237
239
197
136
78
34
6
-5
-10
-17
-25
-29
-30
-35
-42
-50
-55
-58
-56
-57
-59
-62
-65
-64
-61
-63
-64
-66
-69
-67
-65
-64
-64
-67
-70
-66
-65
-63
-66
-69
-69
-66
-66
-64
-66
-67
-70
-64
-61
-62
-62
-64
-65
-66
-63
-63
-62
-63
-65
-64
-64
-61
-62
-65
-65
-62
-59
-59
-60
-57
-58
-58
-53
-54
-53
-53
-53
-47
-45
-44
-47
-44
-43
-40
-37
-36
-34
-34
-33
-33
-27
-26
-27
-26
-26
-24
-21
-18
-17
-15
-18
-17
-14
-13
-14
-14
-16
-14
-11
-11
-16
-15
-17
-18
-18
-20
-21
-26
-26
-27
-27
-30
-34
-35
-38
-39
-39
-38
-39
-41
-43
-45
-42
-41
-41
-43
-45
-44
-44
-42
-44
-45
-44
-43
-41
-42
-42
-45
-47
-44
-42
-41
-43
-41
-41
-40
-38
-40
-39
-42
-41
-39
-37
-37
-36
-42
-40
-39
-34
-34
-35
-35
-38
-37
-35
-32
-34
-36
-37
-33
-33
-34
-33
-33
-35
-32
-31
-32
-31
-33
-37
-35
-32
-31
-34
-35
-36
-35
-33
-33
-34
-36
-36
-36
-33
-32
-36
-36
-36
-34
-31
-31
-34
-34
-34
-34
-32
-30
-32
-34
-35
-37
-35
-34
-35
-34
-33
-33
-31
-32
-33
-35
-36
-35
-31
-31
-32
-33
-34
-32
-32
-33
-32
-34
-33
-31
-30
-30
-30
-34
-32
-30
-27
-25
-24
-25
-28
-27
-26
-21
-20
-19
-16
-10
-4
1
3
3
2
0
1
4
0
-4
-9
-4
-6
-7
-12
-13
-16
-17
-17
-23
-27
-30
-31
-30
-29
-33
-34
-37
-36
-36
-36
-36
-36
-39
-43
-40
-37
-37
-38
-38
-39
-40
-37
-42
-43
-49
-53
-47
-30
2
50
102
160
221
252
235
180
116
60
17
-4
-7
-18
-25
-30
-30
-28
-30
-37
-42
-48
-53
-51
-49
-50
-54
-59
-55
-52
-50
-50
-53
-55
-53
-49
-50
-52
-53
-55
-53
-52
-53
-51
-52
-52
-53
-49
-52
-49
-49
-52
-52
-51
-50
-51
-51
-55
-51
-49
-47
-46
-49
-52
-50
-48
-49
-47
-48
-50
-47
-48
-45
-43
-43
-44
-44
-43
-42
-43
-43
-43
-39
-35
-34
-32
-35
-34
-30
-26
-26
-26
-27
-25
-22
-19
-16
-16
-16
-17
-15
-10
-7
-7
-8
-7
-4
-3
0
-2
-2
-4
-1
0
1
0
-1
-2
-1
-1
-4
-6
-11
-13
-14
-13
-14
-17
-17
-20
-19
-22
-21
-22
-27
-29
-28
-27
-27
-29
-33
-35
-33
-30
-31
-32
-35
-34
-30
-28
-29
-31
-32
-34
-31
-31
-31
-30
-32
-31
-28
-26
-27
-28
-27
-31
-29
-26
-26
-28
-28
-29
-26
-24
-24
-27
-29
-28
-26
-24
-24
-26
-24
-27
-26
-23
-22
-22
-25
-26
-22
-20
-21
-23
-22
-23
-23
-23
-23
-23
-23
-23
-24
-22
-23
-24
-25
-28
-25
-20
-21
-22
-25
-27
-25
-24
-24
-25
-26
-27
-25
-24
-22
-23
-25
-27
-27
-23
-22
-23
-25
-26
-25
-24
-23
-22
-24
-25
-24
-21
-22
-24
-24
-25
-25
-20
-20
-22
-23
-25
-24
-21
-21
-21
-22
-23
-22
-20
-16
-15
-14
-14
-14
-14
-11
-11
-10
-9
-3
4
9
13
14
12
12
14
15
8
6
3
2
2
1
-3
-3
-8
-10
-12
-14
-16
-19
-26
-25
-24
-24
-23
-25
-26
-25
-26
-24
-26
-27
-27
-27
-28
-26
-26
-27
-32
-31
-34
-38
-39
-25
3
48
101
163
228
266
259
210
151
95
47
14
7
2
-4
-8
-11
-15
-20
-21
-24
-31
-34
-38
-39
-42
-38
-39
-42
-44
-43
-43
-41
-38
-41
-43
-43
-41
-39
-40
-45
-43
-42
-41
-39
-38
-40
-41
-40
-38
-38
-38
-37
-39
-40
-40
-38
-38
-37
-38
-39
-37
-38
-36
-34
-36
-37
-33
-30
-30
-31
-32
-34
-29
-27
-26
-28
-27
-30
-27
-23
-21
-24
-22
-20
-17
-18
-13
-13
-14
-11
-9
-6
-3
1
-1
-2
2
5
6
5
5
6
11
13
16
16
17
13
15
18
18
18
15
13
14
12
12
12
8
4
3
1
1
-3
-3
-8
-10
-10
-11
-14
-14
-17
-17
-16
-13
-14
-15
-20
-19
-19
-18
-18
-18
-21
-18
-16
-15
-19
-19
-21
-20
-15
-16
-16
-17
-20
-17
-15
-15
-15
-15
-18
-13
-11
-13
-14
-14
-14
-13
-12
-12
-12
-12
-11
-13
-12
-11
-10
-10
-12
-10
-9
-9
-9
-12
-13
-14
-12
-11
-13
-13
-13
-11
-10
-11
-11
-11
-13
-14
-11
-12
-13
-16
-17
-14
-14
-14
-12
-15
-18
-12
-12
-10
-11
-13
-14
-11
-9
-7
-11
-12
-15
-11
-11
-9
-9
-11
-12
-12
-11
-9
-8
-9
-12
-10
-8
-8
-9
-8
-12
-10
-8
-10
-12
-14
-14
-14
-10
-7
-7
-10
-12
-9
-6
-2
-5
-3
-3
-1
-1
0
1
4
7
15
25
30
30
23
20
20
22
22
19
16
13
12
14
10
9
5
-1
-1
-4
-6
-10
-12
-13
-15
-12
-11
-13
-14
-18
-17
-15
-16
-16
-18
-19
-17
-16
-16
-16
-16
-22
-20
-19
-22
-26
-29
-28
-14
20
66
118
177
238
277
266
215
149
91
47
24
20
18
11
4
3
-1
-5
-11
-16
-25
-27
-28
-27
-28
-29
-32
-34
-34
-34
-33
-33
-34
-34
-35
-32
-31
-33
-33
-37
-33
-33
-31
-32
-33
-35
-32
-31
-32
-32
-30
-33
-32
-30
-31
-31
-32
-32
-32
-30
-27
-27
-28
-29
-28
-26
-25
-25
-25
-26
-26
-23
-19
-20
-19
-22
-20
-17
-16
-15
-16
-16
-10
-8
-7
-6
-5
-3
-2
2
4
4
4
4
7
11
15
17
16
15
17
20
22
23
22
21
23
25
26
26
24
22
20
19
20
15
15
10
9
9
7
7
1
2
-2
-2
-4
-3
-6
-9
-10
-8
-7
-9
-12
-16
-15
-11
-11
-13
-14
-17
-12
-10
-10
-12
-14
-16
-14
-12
-12
-12
-12
-13
-12
-9
-10
-10
-9
-9
-8
-7
-8
-8
-10
-13
-10
-7
-6
-9
-12
-11
-10
-7
-7
-8
-9
-10
-9
-6
-6
-6
-9
-9
-7
-8
-6
-9
-11
-10
-9
-9
-6
-7
-8
-10
-9
-8
-7
-8
-9
-10
-9
-10
-10
-10
-11
-13
-12
-13
-10
-12
-14
-14
-13
-10
-8
-9
-11
-13
-11
-11
-10
-10
-12
-13
-12
-12
-11
-14
-14
-15
-15
-13
-11
-10
-12
-16
-12
-13
-10
-10
-13
-14
-14
-12
-9
-11
-11
-14
-10
-12
-8
-8
-7
-8
-4
-2
0
-2
-4
-2
0
6
12
17
20
22
22
21
22
20
17
14
14
12
12
12
9
5
5
5
3
0
-5
-12
-12
-12
-14
-13
-17
-17
-17
-17
-17
-19
-19
-21
-20
-19
-16
-19
-18
-22
-22
-18
-20
-19
-19
-24
-26
-30
-32
-33
-27
-4
34
80
136
199
248
262
228
169
108
56
22
8
4
-2
-4
-5
-7
-13
-17
-22
-26
-29
-32
-35
-32
-33
-30
-31
-33
-37
-37
-35
-31
-31
-33
-38
-37
-36
-32
-33
-33
-35
-33
-35
-37
-32
-34
-35
-35
-35
-32
-34
-35
-38
-37
-33
-32
-28
-29
-32
-32
-30
-29
-26
-29
-31
-32
-29
-26
-27
-27
-30
-29
-24
-22
-22
-21
-23
-21
-17
-14
-15
-16
-16
-15
-10
-8
-8
-7
-6
-3
-1
1
3
4
1
5
10
10
9
9
11
13
17
19
18
18
18
18
22
21
20
22
19
19
19
18
17
16
14
12
9
10
8
2
-1
-1
-1
0
-1
-2
-5
-7
-7
-8
-9
-10
-15
-14
-13
-10
-10
-12
-15
-15
-16
-15
-15
-18
-19
-19
-19
-16
-13
-15
-17
-15
-15
-13
-13
-13
-16
-16
-15
-13
-13
-16
-16
-14
-13
-15
-12
-13
-13
-14
-12
-10
-13
-15
-14
-15
-14
-14
-12
-13
-18
-15
-15
-15
-12
-14
-18
-16
-15
-15
-15
-16
-19
-17
-15
-14
-16
-16
-18
-17
-15
-14
-14
-17
-21
-21
-15
-18
-19
-17
-21
-21
-21
-18
-19
-20
-24
-23
-19
-14
-15
-18
-21
-21
-20
-15
-18
-20
-25
-24
-19
-16
-16
-18
-21
-22
-18
-21
-18
-17
-19
-20
-20
-21
-20
-21
-21
-17
-18
-16
-13
-12
-14
-12
-13
-14
-13
-12
-12
-12
-6
-1
2
7
7
10
11
12
10
6
2
1
0
-2
-1
-3
-9
-8
-9
-9
-10
-14
-17
-19
-23
-25
-24
-26
-28
-28
-30
-27
-28
-28
-30
-28
-27
-27
-29
-31
-34
-32
-29
-27
-26
-27
-31
-30
-32
-35
-42
-44
-42
-23
14
57
109
163
218
257
260
220
160
105
59
21
8
5
-6
-19
-24
-24
-24
-26
-29
-38
-45
-51
-47
-43
-44
-47
-50
-52
-50
-47
-48
-50
-54
-50
-51
-49
-47
-51
-52
-52
-52
-49
-47
-48
-51
-54
-49
-49
-50
-52
-54
-53
-51
-52
-52
-51
-52
-54
-51
-52
-56
-52
-51
-50
-48
-49
-49
-52
-50
-52
-49
-49
-44
-49
-49
-47
-43
-42
-41
-40
-41
-40
-38
-35
-34
-34
-35
-31
-29
-28
-27
-26
-26
-23
-22
-19
-19
-20
-19
-14
-10
-10
-8
-9
-10
-8
-6
-3
-4
-5
-6
-6
-5
-3
-5
-7
-10
-10
-10
-10
-13
-16
-21
-20
-20
-21
-25
-27
-29
-32
-33
-32
-35
-36
-40
-40
-38
-41
-42
-42
-44
-43
-42
-42
-43
-43
-46
-46
-45
-43
-43
-45
-46
-46
-44
-43
-42
-45
-45
-46
-44
-42
-43
-45
-46
-47
-43
-40
-42
-43
-40
-41
-40
-40
-41
-43
-45
-44
-42
-39
-40
-43
-45
-46
-43
-40
-39
-41
-44
-42
-41
-41
-41
-42
-46
-45
-43
-42
-43
-43
-46
-45
-43
-41
-41
-44
-45
-43
-43
-42
-43
-42
-45
-47
-46
-44
-44
-44
-46
-47
-46
-45
-42
-46
-48
-47
-46
-45
-43
-45
-47
-48
-50
-46
-46
-47
-46
-48
-46
-45
-43
-43
-46
-46
-47
-43
-45
-45
-48
-48
-47
-43
-41
-44
-46
-43
-45
-42
-44
-44
-45
-44
-42
-41
-39
-42
-45
-40
-38
-35
-36
-36
-36
-35
-32
-30
-29
-25
-25
-18
-11
-1
-4
-6
-12
-13
-10
-6
-9
-12
-14
-15
-16
-18
-18
-23
-24
-30
-29
-30
-33
-39
-42
-41
-41
-40
-40
-42
-45
-44
-44
-43
-42
-47
-48
-47
-49
-45
-45
-47
-49
-49
-47
-46
-46
-51
-58
-60
-60
-58
-47
-22
12
60
113
169
223
245
222
169
121
74
32
9
3
0
-6
-10
-14
-20
-25
-34
-40
-46
-51
-55
-59
-58
-57
-59
-57
-60
-59
-63
-62
-62
-63
-62
-64
-62
-61
-62
-62
-63
-65
-63
-62
-60
-59
-63
-66
-67
-65
-58
-60
-64
-65
-61
-60
-61
-60
-62
-62
-63
-61
-60
-59
-62
-62
-60
-57
-58
-57
-57
-59
-58
-55
-55
-53
-55
-57
-55
-53
-50
-49
-48
-51
-49
-45
-45
-41
-43
-45
-41
-39
-35
-39
-35
-39
-33
-29
-25
-27
-23
-24
-21
-18
-17
-17
-15
-15
-13
-9
-6
-6
-9
-11
-11
-8
-6
-6
-8
-11
-12
-8
-10
-14
-18
-21
-20
-20
-24
-25
-29
-31
-31
-31
-33
-35
-36
-38
-39
-39
-38
-40
-44
-46
-46
-44
-41
-43
-44
-47
-43
-45
-45
-48
-48
-50
-49
-46
-43
-45
-45
-49
-48
-46
-42
-43
-45
-50
-50
-47
-43
-43
-43
-47
-45
-45
-42
-41
-42
-45
-46
-45
-39
-39
-44
-45
-44
-42
-43
-40
-42
-44
-42
-43
-40
-44
-45
-45
-45
-44
-43
-44
-42
-47
-45
-45
-43
-44
-44
-44
-43
-44
-44
-45
-44
-45
-46
-46
-46
-46
-45
-46
-48
-46
-45
-44
-46
-49
-49
-48
-45
-47
-49
-49
-48
-46
-46
-46
-49
-49
-51
-48
-46
-49
-49
-52
-49
-49
-47
-48
-51
-52
-52
-51
-49
-50
-52
-52
-50
-50
-47
-47
-47
-50
-48
-46
-47
-44
-44
-47
-45
-43
-39
-40
-38
-38
-35
-29
-24
-20
-14
-12
-14
-17
-16
-15
-20
-24
-26
-24
-24
-27
-30
-33
-34
-35
-37
-42
-44
-52
-53
-51
-47
-47
-50
-57
-56
-56
-55
-56
-58
-62
-62
-63
-62
-59
-61
-63
-62
-63
-59
-61
-64
-66
-70
-71
-72
-68
-60
-37
1
48
102
161
205
211
178
125
76
27
-6
-22
-27
-31
-37
-37
-40
-46
-50
-55
-63
-66
-71
-73
-76
-76
-76
-74
-76
-77
-80
-79
-77
-79
-78
-79
-77
-80
-82
-81
-81
-82
-82
-82
-79
-77
-79
-82
-83
-80
-77
-78
-79
-81
-82
-78
-79
-80
-78
-79
-80
-79
-77
-76
-74
-78
-77
-80
-78
-76
-77
-78
-78
-76
-76
-77
-77
-79
-76
-72
-70
-70
-71
-72
-70
-67
-63
-61
-60
-60
-58
-56
-54
-54
-52
-53
-49
-49
-46
-40
-40
-41
-42
-39
-35
-34
-33
-36
-35
-32
-30
-27
-32
-35
-34
-33
-33
-37
-41
-47
-47
-46
-47
-48
-54
-55
-54
-52
-55
-60
-66
-69
-65
-65
-64
-66
-69
-71
-69
-72
-68
-67
-67
-69
-70
-70
-72
-74
-73
-76
-73
-73
-72
-71
-72
-73
-71
-69
-68
-70
-71
-72
-69
-67
-65
-67
-68
-69
-70
-68
-66
-67
-67
-68
-70
-69
-68
-65
-64
-68
-67
-68
-66
-65
-67
-69
-71
-71
-68
-67
-66
-67
-67
-65
-65
-66
-70
-71
-69
-66
-68
-70
-70
-70
-69
-69
-68
-65
-67
-68
-69
-69
-67
-70
-69
-71
-71
-70
-69
-70
-70
-71
-72
-72
-71
-70
-72
-73
-75
-73
-71
-71
-70
-71
-72
-68
-66
-66
-71
-74
-73
-70
-64
-65
-66
-67
-66
-65
-62
-62
-62
-62
-61
-58
-47
-42
-37
-38
-38
-39
-40
-41
-44
-46
-50
-51
-50
-51
-56
-56
-59
-64
-62
-62
-65
-72
-73
-75
-74
-73
-73
-78
-79
-78
-75
-77
-78
-79
-80
-78
-76
-76
-79
-81
-80
-79
-76
-77
-85
-88
-89
-86
-77
-54
-18
24
74
136
191
211
184
130
75
27
-10
-31
-41
-48
-52
-55
-55
-61
-71
-81
-86
-89
-88
-89
-91
-93
-94
-91
-91
-91
-93
-95
-94
-93
-93
-97
-97
-97
-95
-93
-90
-92
-94
-97
-99
-93
-93
-93
-96
-95
-95
-92
-91
-91
-91
-95
-97
-94
-94
-92
-92
-94
-93
-92
-86
-90
-89
-92
-92
-92
-86
-89
-88
-87
-86
-85
-84
-83
-81
-81
-82
-80
-77
-75
-75
-75
-73
-69
-64
-65
-62
-65
-63
-62
-54
-51
-52
-54
-54
-49
-46
-46
-47
-48
-44
-41
-39
-39
-42
-41
-40
-40
-40
-44
-46
-47
-49
-50
-48
-53
-54
-56
-60
-62
-64
-62
-63
-67
-69
-68
-68
-70
-71
-72
-75
-71
-71
-72
-76
-77
-78
-73
-72
-71
-73
-79
-79
-77
-71
-73
-77
-76
-76
-72
-72
-74
-75
-72
-74
-73
-74
-75
-71
-70
-74
-72
-72
-72
-73
-73
-73
-69
-69
-69
-70
-70
-70
-68
-69
-69
-70
-72
-72
-67
-65
-66
-70
-72
-71
-68
-67
-68
-69
-72
-74
-72
-70
-67
-68
-71
-73
-71
-73
-71
-72
-72
-73
-70
-68
-70
-72
-72
-76
-76
-74
-72
-72
-74
-75
-71
-67
-71
-70
-71
-74
-73
-72
-72
-73
-75
-77
-73
-70
-72
-72
-74
-74
-72
-70
-70
-70
-70
-68
-65
-61
-60
-61
-65
-68
-62
-55
-54
-52
-46
-40
-35
-36
-40
-45
-45
-47
-46
-46
-46
-47
-50
-53
-53
-50
-55
-58
-60
-64
-65
-66
-71
-73
-72
-72
-70
-72
-70
-69
-72
-73
-71
-73
-72
-75
-76
-78
-74
-71
-72
-73
-79
-84
-87
-86
-80
-65
-30
17
77
141
202
228
212
157
104
55
14
-10
-15
-25
-36
-41
-49
-53
-62
-69
-72
-77
-81
-83
-85
-87
-86
-84
-87
-87
-89
-88
-85
-86
-85
-88
-90
-89
-86
-85
-90
-91
-92
-92
-89
-88
-87
-90
-93
-93
-89
-88
-87
-89
-89
-91
-87
-86
-88
-89
-91
-91
-88
-88
-87
-87
-92
-88
-88
-87
-85
-85
-85
-88
-86
-84
-82
-80
-83
-81
-78
-75
-75
-75
-75
-72
-70
-69
-71
-70
-70
-68
-61
-56
-54
-55
-55
-53
-50
-48
-46
-45
-43
-47
-43
-39
-40
-39
-36
-36
-35
-35
-33
-34
-36
-36
-39
-39
-41
-43
-48
-50
-50
-50
-55
-59
-61
-64
-63
-62
-63
-69
-72
-74
-72
-67
-70
-69
-71
-73
-72
-71
-74
-76
-77
-79
-73
-73
-72
-70
-75
-75
-73
-69
-70
-73
-74
-77
-74
-72
-71
-72
-75
-74
-73
-71
-69
-70
-71
-73
-72
-70
-69
-70
-70
-70
-67
-65
-65
-65
-69
-70
-69
-66
-66
-70
-69
-70
-67
-65
-67
-68
-68
-69
-67
-67
-64
-66
-65
-69
-67
-66
-64
-66
-69
-71
-69
-67
-67
-70
-71
-72
-70
-67
-66
-66
-70
-69
-67
-62
-66
-68
-67
-69
-65
-64
-66
-68
-70
-70
-69
-66
-63
-65
-70
-70
-70
-65
-66
-65
-65
-67
-64
-63
-61
-67
-68
-70
-67
-67
-65
-66
-65
-65
-63
-63
-63
-67
-68
-68
-64
-62
-59
-61
-63
-61
-60
-55
-53
-55
-54
-54
-52
-50
-52
-50
-48
-41
-34
-24
-22
-27
-31
-31
-30
-28
-32
-36
-40
-41
-39
-36
-34
-38
-45
-51
-56
-59
-61
-64
-64
-65
-62
-62
-61
-64
-65
-65
-62
-62
-64
-67
-67
-67
-67
-65
-65
-66
-65
-67
-67
-69
-75
-78
-83
-78
-53
-15
31
83
138
197
241
245
211
152
96
45
9
0
0
-7
-18
-25
-31
-36
-48
-57
-67
-73
-73
-69
-69
-71
-75
-80
-77
-77
-76
-78
-79
-76
-76
-76
-77
-78
-79
-82
-79
-77
-73
-77
-79
-80
-76
-74
-75
-75
-78
-78
-78
-76
-79
-76
-77
-77
-77
-76
-73
-75
-77
-77
-78
-77
-78
-76
-77
-76
-74
-72
-70
-72
-73
-76
-72
-72
-69
-68
-69
-69
-67
-63
-63
-63
-64
-60
-58
-54
-54
-52
-54
-54
-50
-47
-45
-45
-44
-43
-37
-32
-32
-32
-31
-30
-27
-25
-25
-26
-25
-25
-22
-21
-20
-20
-22
-23
-21
-19
-19
-23
-27
-28
-29
-29
-35
-36
-37
-39
-41
-39
-42
-45
-47
-47
-46
-46
-50
-53
-54
-53
-54
-55
-57
-58
-60
-60
-56
-53
-54
-54
-56
-59
-59
-58
-58
-59
-60
-62
-59
-60
-59
-61
-61
-62
-60
-58
-61
-60
-59
-63
-62
-58
-57
-57
-58
-55
-57
-53
-55
-56
-57
-58
-57
-54
-54
-56
-58
-57
-55
-52
-53
-54
-55
-54
-52
-53
-54
-53
-54
-55
-53
-50
-53
-53
-57
-56
-54
-52
-53
-55
-58
-59
-57
-53
-53
-55
-54
-57
-56
-54
-55
-55
-55
-56
-55
-54
-55
-55
-54
-58
-55
-55
-54
-56
-55
-56
-56
-53
-53
-54
-55
-56
-55
-52
-52
-54
-58
-59
-59
-54
-54
-56
-58
-58
-56
-53
-52
-52
-55
-55
-55
-52
-54
-54
-53
-54
-49
-46
-45
-48
-49
-48
-44
-42
-44
-41
-33
-32
-25
-20
-15
-18
-19
-22
-19
-19
-22
-26
-30
-31
-33
-34
-35
-32
-36
-41
-43
-44
-47
-53
-54
-56
-55
-56
-54
-55
-55
-58
-57
-58
-61
-63
-64
-63
-62
-59
-58
-62
-63
-68
-64
-63
-66
-70
-75
-76
-67
-40
-3
41
97
162
215
232
198
138
84
40
9
-1
-4
-12
-22
-28
-32
-36
-45
-56
-64
-69
-69
-68
-69
-75
-79
-82
-80
-79
-77
-80
-80
-83
-81
-81
-81
-84
-84
-85
-84
-82
-82
-79
-81
-84
-84
-79
-79
-83
-85
-85
-84
-81
-81
-80
-83
-83
-85
-81
-80
-81
-81
-82
-79
-79
-80
-78
-79
-82
-81
-81
-79
-77
-78
-79
-80
-76
-75
-75
-76
-74
-70
-70
-69
-71
-69
-68
-64
-62
-61
-61
-64
-63
-60
-56
-52
-53
-52
-49
-44
-42
-39
-40
-42
-43
-36
-34
-32
-32
-36
-35
-29
-27
-26
-27
-28
-31
-28
-28
-27
-30
-33
-35
-33
-32
-36
-37
-38
-42
-44
-46
-47
-51
-55
-56
-57
-57
-56
-58
-59
-65
-65
-65
-65
-65
-64
-68
-67
-66
-67
-67
-68
-71
-69
-67
-67
-69
-71
-71
-70
-70
-71
-72
-72
-73
-72
-72
-68
-68
-70
-71
-67
-69
-70
-67
-69
-71
-68
-64
-65
-67
-69
-73
-70
-67
-67
-68
-69
-72
-70
-67
-64
-66
-66
-68
-70
-67
-67
-65
-68
-71
-69
-66
-65
-67
-70
-70
-68
-67
-68
-73
-74
-71
-71
-69
-69
-71
-72
-72
-72
-69
-69
-70
-71
-73
-74
-70
-67
-68
-70
-73
-72
-70
-71
-69
-71
-72
-72
-72
-72
-72
-74
-75
-75
-73
-72
-75
-75
-74
-74
-74
-72
-72
-74
-77
-74
-70
-67
-69
-71
-73
-72
-71
-69
-73
-73
-75
-72
-68
-69
-69
-72
-73
-69
-64
-63
-63
-67
-67
-65
-64
-65
-61
-60
-55
-44
-36
-35
-34
-39
-43
-42
-40
-40
-43
-49
-55
-54
-54
-52
-56
-57
-60
-65
-69
-69
-73
-75
-76
-76
-75
-78
-80
-81
-81
-78
-80
-81
-82
-85
-84
-82
-82
-80
-82
-86
-86
-85
-82
-85
-89
-96
-98
-87
-59
-18
34
88
150
196
197
153
92
37
-10
-35
-39
-44
-53
-55
-59
-59
-66
-76
-86
-94
-98
-96
-96
-96
-100
-98
-99
-97
-98
-100
-101
-103
-104
-100
-98
-100
-103
-103
-101
-98
-97
-97
-99
-97
-98
-99
-99
-96
-96
-98
-101
-100
-98
-98
-98
-100
-97
-97
-96
-98
-94
-97
-100
-101
-98
-99
-97
-97
-98
-96
-93
-94
-92
-91
-91
-91
-89
-91
-93
-92
-93
-89
-85
-81
-84
-82
-81
-78
-76
-74
-72
-72
-72
-69
-67
-67
-66
-65
-62
-61
-57
-57
-57
-60
-56
-53
-49
-50
-49
-50
-48
-47
-45
-44
-45
-48
-48
-48
-48
-51
-52
-56
-56
-56
-56
-60
-62
-64
-68
-67
-68
-69
-75
-76
-74
-75
-74
-74
-77
-80
-81
-80
-76
-78
-80
-85
-85
-83
-80
-82
-81
-83
-83
-87
-86
-83
-85
-83
-82
-79
-79
-79
-82
-84
-82
-79
-78
-78
-78
-81
-84
-83
-82
-81
-82
-83
-81
-78
-75
-75
-77
-79
-79
-77
-76
-76
-77
-76
-77
-77
-77
-75
-74
-73
-77
-76
-70
-71
-73
-76
-78
-77
-75
-76
-76
-77
-80
-81
-79
-75
-76
-74
-76
-75
-76
-73
-74
-74
-76
-76
-78
-79
-79
-79
-81
-81
-79
-74
-74
-78
-77
-77
-76
-77
-80
-82
-78
-75
-76
-76
-75
-77
-79
-79
-81
-82
-84
-85
-83
-80
-81
-76
-77
-79
-81
-78
-74
-71
-69
-72
-72
-72
-68
-68
-67
-64
-62
-59
-55
-49
-48
-49
-50
-50
-49
-52
-58
-64
-62
-57
-57
-59
-63
-70
-74
-75
-74
-75
-78
-83
-88
-88
-90
-91
-86
-89
-89
-91
-90
-90
-91
-93
-92
-92
-91
-91
-94
-95
-95
-96
-98
-97
-97
-99
-103
-102
-79
-42
7
63
124
186
219
208
154
91
31
-18
-43
-53
-64
-78
-88
-87
-86
-86
-91
-97
-103
-107
-107
-106
-106
-106
-111
-110
-108
-109
-110
-113
-110
-111
-106
-105
-109
-110
-109
-108
-111
-113
-111
-109
-107
-107
-107
-107
-109
-111
-113
-110
-109
-109
-112
-114
-115
-112
-109
-106
-107
-106
-106
-106
-106
-107
-105
-105
-107
-109
-105
-101
-103
-106
-104
-99
-97
-96
-100
-103
-101
-94
-94
-97
-94
-90
-86
-87
-92
-92
-86
-83
-82
-81
-78
-76
-74
-73
-72
-69
-68
-66
-66
-68
-65
-63
-59
-59
-56
-53
-54
-56
-57
-54
-51
-53
-52
-54
-56
-55
-55
-58
-63
-65
-65
-68
-69
-69
-73
-74
-77
-81
-83
-85
-86
-86
-82
-82
-87
-89
-89
-85
-81
-86
-90
-92
-92
-88
-88
-89
-88
-86
-89
-91
-85
-82
-86
-94
-92
-89
-89
-89
-88
-84
-87
-84
-81
-79
-83
-83
-85
-85
-82
-82
-79
-85
-86
-82
-79
-77
-80
-81
-79
-81
-80
-79
-80
-81
-82
-80
-80
-80
-82
-85
-84
-78
-72
-71
-75
-80
-81
-77
-80
-81
-78
-83
-85
-83
-80
-79
-80
-78
-81
-82
-81
-75
-75
-80
-84
-83
-79
-77
-78
-84
-86
-82
-75
-72
-76
-82
-82
-83
-83
-81
-76
-73
-77
-78
-78
-76
-75
-81
-81
-77
-75
-75
-74
-74
-75
-77
-73
-71
-69
-69
-70
-69
-68
-67
-67
-65
-67
-64
-59
-54
-53
-43
-40
-43
-49
-52
-52
-51
-52
-53
-53
-56
-56
-58
-63
-63
-61
-60
-64
-71
-74
-73
-78
-79
-78
-77
-81
-81
-77
-77
-79
-83
-83
-80
-79
-79
-76
-73
-75
-77
-81
-82
-83
-88
-92
-88
-66
-28
23
79
143
216
265
264
214
141
61
-8
-48
-53
-52
-64
-75
-78
-79
-79
-80
-89
-96
-93
-89
-88
-94
-95
-92
-91
-91
-94
-97
-99
-97
-94
-90
-89
-88
-95
-101
-98
-93
-94
-98
-99
-99
-92
-93
-93
-95
-97
-100
-93
-90
-90
-96
-97
-91
-88
-89
-95
-96
-95
-95
-93
-93
-93
-95
-91
-90
-87
-84
-86
-88
-90
-89
-86
-83
-81
-84
-84
-86
-82
-79
-72
-71
-70
-73
-71
-67
-66
-65
-64
-62
-59
-54
-53
-51
-48
-50
-50
-48
-42
-39
-41
-42
-40
-37
-36
-33
-32
-34
-38
-39
-38
-38
-40
-42
-39
-42
-40
-46
-51
-55
-56
-56
-56
-56
-60
-60
-58
-63
-68
-72
-69
-66
-69
-75
-75
-72
-72
-76
-74
-71
-72
-76
-77
-78
-75
-72
-73
-73
-76
-78
-72
-69
-71
-74
-78
-79
-76
-76
-72
-73
-73
-76
-74
-72
-70
-71
-72
-74
-71
-71
-68
-68
-71
-75
-70
-69
-67
-69
-67
-67
-67
-69
-70
-67
-69
-71
-68
-67
-65
-64
-67
-72
-70
-66
-68
-69
-70
-72
-70
-69
-65
-69
-70
-73
-71
-67
-68
-69
-75
-76
-71
-66
-66
-67
-73
-72
-70
-71
-69
-73
-71
-72
-74
-70
-68
-69
-70
-71
-70
-70
-68
-67
-70
-72
-73
-68
-66
-69
-76
-78
-74
-68
-64
-63
-62
-64
-64
-66
-63
-64
-65
-65
-62
-58
-56
-57
-56
-52
-47
-40
-39
-41
-41
-45
-46
-44
-46
-50
-50
-54
-54
-53
-51
-56
-58
-63
-63
-68
-68
-72
-74
-77
-72
-70
-73
-74
-76
-76
-75
-75
-77
-78
-78
-78
-74
-73
-72
-74
-75
-80
-83
-85
-88
-91
-78
-51
-1
53
119
192
247
251
205
133
67
13
-19
-30
-41
-49
-56
-60
-66
-74
-78
-83
-85
-85
-84
-89
-93
-92
-89
-90
-91
-93
-92
-87
-88
-91
-93
-94
-95
-95
-93
-93
-93
-95
-93
-92
-89
-92
-96
-99
-95
-92
-91
-92
-91
-94
-91
-91
-90
-95
-95
-96
-94
-93
-92
-89
-92
-91
-90
-90
-91
-90
-90
-90
-88
-83
-81
-83
-83
-84
-81
-80
-77
-77
-77
-76
-74
-72
-68
-68
-69
-68
-64
-61
-55
-57
-55
-56
-53
-50
-47
-49
-48
-48
-44
-41
-41
-40
-40
-44
-44
-43
-42
-41
-45
-47
-47
-47
-46
-48
-53
-56
-58
-60
-62
-63
-67
-68
-71
-68
-67
-67
-71
-72
-73
-72
-74
-77
-79
-81
-78
-76
-77
-79
-80
-82
-80
-81
-78
-80
-80
-85
-79
-79
-78
-82
-81
-82
-79
-78
-78
-79
-79
-83
-80
-78
-77
-74
-78
-78
-76
-76
-74
-74
-73
-76
-77
-76
-75
-74
-75
-79
-76
-72
-70
-72
-72
-75
-72
-71
-70
-72
-75
-75
-73
-71
-70
-73
-76
-74
-72
-73
-70
-71
-73
-74
-76
-73
-71
-70
-72
-77
-75
-73
-73
-72
-75
-74
-72
-73
-72
-72
-72
-72
-71
-69
-67
-70
-72
-76
-73
-72
-71
-71
-70
-73
-69
-68
-68
-70
-73
-74
-71
-69
-68
-68
-71
-71
-69
-68
-69
-69
-71
-70
-69
-66
-62
-62
-60
-62
-60
-60
-57
-58
-57
-58
-55
-50
-47
-43
-40
-33
-30
-32
-34
-33
-36
-38
-40
-37
-40
-41
-43
-47
-47
-46
-48
-50
-57
-61
-61
-61
-60
-64
-68
-71
-67
-65
-64
-64
-66
-69
-69
-66
-66
-67
-69
-72
-70
-70
-67
-71
-78
-86
-84
-80
-57
-17
33
93
168
240
274
248
183
111
51
16
7
1
-10
-21
-32
-40
-48
-59
-65
-72
-75
-75
-74
-76
-79
-80
-78
-75
-78
-79
-82
-84
-85
-82
-81
-81
-78
-80
-82
-80
-76
-76
-77
-80
-76
-76
-74
-76
-79
-77
-74
-74
-73
-74
-76
-78
-78
-76
-75
-76
-76
-76
-73
-75
-70
-72
-73
-74
-72
-72
-68
-70
-71
-73
-71
-67
-67
-65
-65
-68
-66
-64
-60
-57
-57
-56
-51
-49
-45
-44
-43
-43
-41
-36
-33
-31
-33
-32
-30
-27
-23
-21
-22
-26
-23
-19
-18
-20
-21
-23
-25
-23
-24
-28
-29
-33
-33
-34
-38
-41
-44
-50
-48
-50
-48
-49
-52
-55
-56
-57
-59
-58
-59
-60
-60
-60
-59
-58
-60
-62
-60
-61
-61
-64
-61
-62
-63
-63
-61
-61
-62
-64
-64
-59
-58
-61
-62
-64
-61
-60
-59
-60
-59
-58
-56
-58
-58
-57
-56
-58
-55
-53
-54
-55
-51
-54
-54
-52
-52
-53
-54
-54
-54
-54
-52
-51
-54
-57
-57
-54
-53
-52
-52
-55
-54
-57
-55
-56
-56
-56
-55
-61
-60
-61
-62
-64
-62
-62
-60
-57
-57
-59
-60
-59
-59
-59
-59
-59
-61
-63
-65
-61
-57
-60
-60
-60
-56
-55
-57
-60
-61
-59
-62
-64
-64
-67
-66
-58
-53
-53
-54
-58
-55
-53
-55
-57
-58
-57
-57
-54
-46
-44
-43
-44
-29
-25
-23
-31
-34
-35
-32
-34
-40
-44
-45
-45
-45
-45
-47
-48
-51
-61
-63
-63
-66
-69
-70
-69
-69
-69
-70
-69
-71
-74
-78
-76
-77
-77
-73
-75
-72
-74
-73
-77
-76
-81
-87
-92
-93
-90
-76
-44
3
62
130
204
257
265
220
150
84
31
-1
-9
-12
-20
-28
-38
-48
-66
-75
-80
-82
-87
-90
-91
-92
-91
-91
-92
-95
-98
-96
-95
-94
-96
-97
-100
-99
-94
-94
-94
-97
-96
-95
-95
-95
-95
-94
-95
-97
-96
-94
-93
-94
-97
-94
-94
-93
-93
-91
-95
-94
-93
-90
-93
-92
-94
-92
-89
-87
-88
-85
-88
-85
-86
-83
-85
-86
-88
-86
-83
-81
-79
-80
-81
-76
-73
-70
-68
-70
-68
-66
-60
-56
-54
-53
-54
-49
-47
-45
-44
-42
-40
-38
-35
-32
-28
-30
-32
-29
-27
-26
-25
-26
-26
-26
-26
-25
-27
-28
-33
-32
-33
-34
-37
-41
-44
-44
-44
-44
-45
-49
-52
-52
-49
-50
-53
-52
-55
-50
-50
-50
-52
-53
-53
-51
-49
-48
-51
-52
-53
-51
-51
-49
-49
-49
-52
-52
-50
-46
-49
-50
-52
-50
-50
-48
-45
-47
-49
-49
-45
-42
-45
-45
-46
-48
-44
-42
-45
-44
-46
-44
-44
-41
-44
-42
-42
-43
-43
-40
-39
-42
-42
-42
-42
-43
-39
-42
-43
-41
-40
-39
-39
-42
-44
-41
-41
-41
-40
-40
-42
-43
-40
-42
-42
-42
-45
-42
-40
-41
-38
-39
-42
-42
-42
-43
-41
-44
-43
-42
-42
-40
-38
-37
-39
-37
-37
-33
-34
-36
-38
-32
-26
-22
-18
-14
-13
-7
-2
-4
-4
-8
-10
-14
-10
-12
-16
-22
-28
-23
-21
-20
-24
-30
-36
-40
-38
-38
-40
-40
-43
-43
-42
-42
-41
-44
-46
-47
-46
-45
-46
-47
-46
-45
-44
-43
-45
-48
-53
-55
-56
-58
-58
-43
-10
34
85
143
208
244
234
186
133
89
49
24
14
7
0
-3
-8
-15
-24
-32
-39
-44
-50
-56
-58
-53
-53
-54
-58
-58
-61
-60
-59
-60
-61
-63
-66
-65
-60
-59
-60
-61
-65
-65
-63
-59
-59
-62
-64
-62
-63
-61
-60
-63
-64
-62
-59
-60
-63
-64
-65
-65
-62
-59
-61
-61
-65
-62
-61
-57
-62
-63
-64
-62
-58
-56
-56
-58
-58
-58
-53
-52
-49
-48
-52
-49
-46
-43
-41
-42
-45
-43
-42
-38
-36
-37
-33
-29
-28
-25
-22
-22
-23
-21
-18
-15
-13
-13
-14
-13
-10
-7
-7
-9
-10
-9
-7
-7
-6
-10
-12
-13
-12
-10
-12
-15
-20
-25
-22
-21
-23
-26
-35
-34
-35
-37
-39
-42
-45
-44
-43
-43
-44
-49
-50
-52
-51
-48
-50
-52
-55
-54
-54
-54
-54
-54
-55
-58
-54
-51
-52
-57
-60
-57
-56
-54
-54
-53
-56
-58
-56
-55
-54
-53
-56
-56
-57
-54
-53
-55
-57
-56
-53
-52
-54
-55
-56
-56
-54
-52
-54
-60
-60
-58
-56
-55
-56
-57
-60
-58
-57
-54
-56
-57
-60
-62
-61
-60
-61
-64
-63
-62
-59
-60
-61
-63
-65
-64
-63
-60
-59
-61
-62
-62
-61
-60
-60
-62
-61
-62
-58
-57
-60
-62
-63
-64
-62
-60
-62
-62
-63
-61
-58
-56
-56
-58
-62
-57
-53
-53
-51
-52
-53
-54
-51
-49
-47
-48
-47
-41
-33
-26
-20
-17
-26
-28
-27
-22
-23
-28
-33
-36
-35
-32
-34
-37
-39
-43
-42
-45
-49
-55
-58
-59
-57
-55
-59
-59
-62
-61
-63
-61
-60
-60
-65
-68
-65
-66
-65
-66
-67
-69
-67
-64
-66
-70
-73
-77
-81
-80
-78
-66
-42
-5
39
93
158
209
228
203
154
104
56
10
-9
-12
-21
-26
-29
-32
-42
-50
-54
-58
-64
-70
-77
-79
-78
-77
-79
-81
-82
-83
-83
-78
-79
-81
-84
-86
-84
-80
-84
-84
-86
-86
-84
-82
-83
-84
-84
-83
-81
-80
-81
-81
-84
-84
-80
-80
-80
-83
-83
-83
-81
-79
-79
-81
-82
-83
-84
-80
-79
-82
-81
-82
-82
-78
-78
-77
-79
-78
-76
-72
-74
-74
-77
-75
-72
-70
-69
-70
-68
-69
-65
-62
-63
-62
-61
-61
-55
-54
-53
-51
-51
-49
-47
-46
-46
-43
-44
-42
-40
-34
-34
-35
-36
-35
-32
-29
-30
-30
-32
-35
-34
-34
-35
-37
-38
-39
-41
-39
-43
-46
-49
-50
-52
-49
-52
-54
-58
-58
-58
-57
-60
-62
-66
-67
-66
-64
-66
-68
-67
-68
-67
-63
-68
-68
-69
-71
-68
-66
-69
-68
-68
-68
-67
-64
-66
-67
-68
-69
-66
-63
-63
-63
-64
-64
-63
-62
-63
-63
-63
-64
-62
-61
-61
-60
-64
-67
-64
-60
-61
-62
-61
-62
-59
-59
-61
-61
-64
-64
-62
-61
-63
-62
-65
-65
-64
-63
-62
-65
-65
-64
-62
-63
-64
-64
-64
-66
-65
-63
-66
-65
-69
-67
-66
-64
-65
-66
-65
-68
-66
-66
-66
-67
-68
-66
-64
-61
-60
-61
-65
-66
-62
-61
-63
-63
-66
-65
-62
-60
-62
-64
-60
-63
-60
-59
-57
-55
-55
-54
-53
-51
-50
-49
-45
-38
-29
-25
-26
-31
-34
-33
-30
-32
-33
-40
-43
-45
-46
-44
-42
-41
-47
-50
-52
-58
-59
-61
-64
-66
-64
-63
-64
-68
-68
-67
-69
-67
-70
-68
-71
-72
-70
-68
-71
-71
-72
-72
-73
-75
-79
-84
-84
-79
-56
-19
21
67
124
182
221
221
179
123
69
18
-17
-20
-18
-26
-36
-39
-43
-46
-56
-64
-71
-78
-78
-78
-80
-81
-84
-85
-85
-83
-86
-88
-89
-90
-87
-86
-85
-86
-89
-89
-89
-86
-85
-88
-89
-89
-89
-85
-86
-87
-87
-88
-84
-83
-82
-82
-85
-85
-86
-84
-85
-85
-87
-88
-86
-84
-83
-83
-86
-87
-86
-81
-81
-82
-84
-82
-81
-78
-78
-80
-81
-80
-78
-74
-72
-76
-76
-77
-73
-69
-65
-67
-69
-68
-65
-60
-59
-61
-60
-57
-54
-49
-49
-51
-49
-49
-47
-46
-44
-47
-44
-46
-43
-40
-39
-40
-42
-44
-42
-40
-41
-42
-47
-48
-48
-49
-49
-54
-58
-60
-59
-60
-63
-66
-68
-70
-68
-67
-69
-71
-74
-76
-75
-73
-71
-74
-77
-79
-77
-76
-75
-79
-77
-81
-77
-76
-77
-75
-78
-78
-79
-74
-76
-76
-78
-78
-78
-75
-74
-75
-77
-77
-77
-76
-76
-76
-74
-74
-73
-72
-73
-74
-74
-74
-70
-69
-73
-74
-79
-77
-73
-71
-73
-73
-73
-72
-72
-72
-74
-73
-75
-76
-76
-76
-74
-75
-74
-73
-72
-71
-74
-76
-77
-77
-75
-72
-72
-72
-75
-74
-74
-72
-71
-73
-72
-73
-72
-71
-73
-72
-74
-77
-74
-72
-75
-74
-74
-76
-73
-72
-70
-71
-73
-73
-69
-67
-66
-69
-68
-70
-64
-61
-60
-64
-64
-61
-57
-51
-48
-45
-39
-34
-33
-33
-37
-40
-43
-43
-43
-43
-43
-49
-54
-54
-53
-54
-59
-63
-65
-68
-68
-69
-72
-74
-77
-77
-76
-74
-74
-78
-79
-81
-78
-76
-76
-77
-79
-78
-77
-76
-80
-86
-88
-90
-84
-70
-36
9
62
128
188
