-75
-75
-75
-75
-75
-75
-75
-75
-77
-77
-77
-76
-72
-72
-74
-73
-74
-72
-71
-69
-68
-69
-69
-66
-65
-62
-61
-62
-62
-60
-56
-50
-50
-49
-47
-44
-39
-33
-32
-32
-27
-24
-18
-12
-9
-7
-3
0
6
12
14
15
15
20
22
27
26
29
27
32
33
35
37
35
33
34
32
30
28
24
17
16
14
11
4
-1
-10
-13
-17
-19
-25
-29
-33
-35
-37
-41
-43
-44
-46
-49
-48
-49
-49
-53
-53
-53
-52
-51
-54
-53
-55
-53
-55
-53
-54
-53
-56
-57
-55
-52
-50
-53
-54
-53
-48
-49
-50
-50
-51
-48
-46
-45
-46
-48
-48
-48
-44
-44
-44
-45
-48
-47
-43
-44
-46
-46
-47
-47
-44
-43
-46
-48
-50
-49
-48
-48
-47
-50
-51
-51
-50
-49
-51
-54
-54
-53
-52
-51
-54
-56
-58
-57
-57
-58
-58
-58
-60
-59
-60
-60
-61
-60
-64
-63
-63
-60
-62
-62
-65
-65
-64
-64
-62
-65
-65
-64
-63
-59
-55
-56
-56
-53
-51
-49
-48
-47
-49
-48
-47
-43
-43
-43
-46
-44
-42
-41
-43
-43
-49
-51
-50
-52
-54
-54
-54
-51
-50
-51
-52
-59
-63
-64
-65
-66
-68
-71
-76
-77
-76
-76
-79
-82
-81
-82
-81
-80
-78
-81
-84
-82
-80
-80
-79
-81
-82
-81
-80
-81
-81
-84
-89
-95
-108
-116
-118
-110
-97
-78
-42
18
94
170
238
302
350
370
360
317
228
124
26
-47
-88
-104
-105
-97
-81
-66
-59
-64
-72
-75
-75
-76
-76
-79
-84
-86
-87
-86
-87
-90
-93
-92
-90
-89
-92
-93
-97
-94
-91
-93
-92
-94
-95
-93
-95
-95
-94
-93
-97
-94
-92
-91
-88
-92
-94
-90
-86
-87
-87
-87
-88
-85
-82
-79
-78
-80
-80
-78
-74
-69
-68
-68
-69
-64
-58
-55
-52
-51
-48
-42
-37
-32
-27
-26
-25
-20
-14
-8
-8
-5
-1
3
7
12
11
12
14
17
21
23
22
22
19
20
19
18
17
11
9
6
3
-2
-6
-13
-18
-23
-26
-30
-36
-43
-48
-50
-52
-54
-55
-61
-63
-65
-63
-62
-62
-70
-69
-70
-66
-65
-66
-69
-70
-69
-70
-68
-69
-70
-71
-70
-66
-66
-66
-66
-67
-65
-64
-63
-63
-64
-66
-63
-62
-60
-60
-62
-64
-62
-61
-59
-59
-59
-63
-62
-59
-59
-60
-62
-61
-62
-61
-59
-60
-63
-65
-66
-63
-62
-63
-65
-67
-66
-65
-64
-67
-66
-68
-70
-69
-68
-68
-70
-71
-70
-69
-69
-69
-70
-75
-73
-72
-74
-73
-73
-76
-77
-75
-74
-75
-77
-80
-76
-77
-75
-74
-78
-80
-79
-75
-76
-77
-77
-79
-80
-79
-77
-76
-77
-77
-75
-72
-71
-67
-67
-63
-62
-62
-62
-63
-61
-62
-57
-54
-53
-52
-54
-55
-53
-50
-50
-53
-55
-59
-63
-62
-63
-63
-62
-64
-62
-60
-64
-68
-71
-75
-76
-76
-78
-81
-81
-84
-86
-85
-86
-87
-90
-90
-90
-90
-87
-88
-88
-92
-91
-90
-90
-88
-90
-91
-90
-87
-87
-89
-92
-102
-114
-124
-127
-118
-107
-91
-55
9
89
175
246
307
350
368
346
273
158
39
-52
-97
-110
-108
-101
-84
-71
-68
-75
-79
-83
-83
-83
-81
-86
-91
-95
-99
-99
-97
-97
-97
-102
-103
-104
-100
-99
-100
-98
-102
-100
-99
-97
-99
-99
-102
-100
-98
-96
-98
-95
-99
-94
-94
-94
-92
-93
-91
-89
-87
-82
-81
-82
-82
-80
-76
-71
-68
-66
-66
-59
-55
-53
-49
-46
-43
-38
-33
-26
-20
-20
-17
-13
-10
-4
-2
-1
-1
5
6
14
14
12
11
14
15
15
12
9
3
3
2
-1
-3
-15
-19
-23
-25
-28
-33
-41
-46
-50
-52
-54
-56
-61
-64
-65
-64
-67
-66
-71
-72
-71
-69
-69
-70
-70
-71
-69
-68
-69
-69
-70
-71
-70
-68
-66
-67
-67
-69
-68
-67
-65
-66
-68
-68
-65
-66
-64
-63
-65
-67
-67
-65
-62
-62
-64
-67
-64
-64
-63
-62
-67
-65
-67
-63
-66
-64
-67
-67
-66
-65
-63
-63
-64
-69
-67
-66
-67
-67
-69
-70
-70
-71
-70
-71
-73
-75
-73
-74
-72
-73
-77
-77
-76
-74
-75
-75
-77
-79
-78
-77
-79
-79
-81
-82
-82
-81
-80
-80
-82
-82
-82
-81
-81
-81
-80
-80
-80
-77
-77
-76
-81
-81
-79
-79
-77
-73
-74
-70
-67
-66
-64
-63
-66
-67
-64
-62
-58
-58
-61
-63
-60
-56
-58
-58
-60
-64
-65
-69
-69
-68
-70
-69
-68
-64
-65
-68
-73
-77
-78
-76
-77
-79
-83
-86
-86
-89
-89
-91
-91
-91
-89
-87
-87
-90
-93
-94
-92
-90
-89
-88
-89
-91
-91
-90
-89
-90
-91
-95
-103
-114
-120
-117
-107
-94
-72
-34
34
107
180
243
301
337
340
301
212
98
-5
-73
-105
-115
-114
-96
-76
-67
-69
-79
-82
-86
-83
-84
-85
-88
-94
-95
-96
-95
-95
-96
-97
-99
-97
-97
-98
-96
-98
-97
-96
-94
-95
-97
-98
-98
-98
-95
-96
-94
-96
-98
-97
-91
-90
-90
-91
-95
-89
-87
-85
-85
-87
-86
-82
-80
-76
-75
-73
-71
-67
-63
-59
-58
-54
-52
-48
-43
-41
-36
-34
-32
-26
-21
-18
-14
-12
-11
-9
-5
1
2
2
3
7
8
11
12
7
6
9
7
8
6
1
-2
-6
-8
-11
-19
-21
-27
-31
-34
-35
-40
-45
-52
-53
-54
-53
-57
-60
-62
-63
-61
-60
-63
-67
-69
-65
-66
-65
-66
-69
-67
-67
-66
-67
-67
-70
-68
-67
-66
-67
-65
-66
-64
-64
-63
-64
-63
-62
-61
-60
-59
-61
-62
-59
-59
-60
-58
-57
-57
-59
-58
-57
-56
-56
-57
-59
-57
-57
-58
-56
-57
-58
-59
-55
-57
-59
-59
-60
-60
-59
-59
-61
-64
-64
-64
-62
-62
-64
-65
-68
-66
-66
-67
-69
-70
-71
-71
-69
-69
-70
-71
-75
-73
-72
-71
-72
-73
-75
-74
-72
-72
-74
-75
-76
-76
-74
-73
-73
-75
-76
-76
-74
-71
-71
-75
-76
-74
-74
-71
-71
-68
-69
-66
-60
-59
-58
-60
-60
-58
-57
-54
-51
-52
-54
-55
-50
-47
-47
-50
-53
-56
-56
-58
-62
-63
-63
-60
-57
-56
-61
-63
-68
-70
-69
-71
-76
-79
-80
-77
-79
-80
-81
-84
-87
-83
-84
-85
-85
-86
-86
-86
-86
-83
-85
-87
-87
-85
-84
-85
-84
-87
-93
-101
-111
-117
-111
-99
-82
-46
15
97
180
254
313
354
364
331
249
132
17
-67
-108
-112
-103
-85
-70
-65
-66
-73
-78
-80
-79
-82
-84
-87
-88
-90
-91
-92
-91
-90
-92
-96
-96
-93
-93
-92
-93
-93
-94
-93
-94
-94
-94
-94
-96
-94
-90
-90
-91
-91
-91
-92
-89
-86
-87
-85
-86
-85
-81
-80
-77
-77
-75
-75
-73
-68
-67
-65
-63
-58
-53
-49
-44
-43
-42
-37
-31
-26
-22
-18
-18
-12
-5
-2
-1
3
2
9
15
16
20
17
19
22
25
24
27
24
19
19
21
20
17
11
3
2
-1
-4
-11
-15
-23
-25
-28
-31
-36
-42
-47
-47
-50
-50
-54
-56
-58
-63
-60
-61
-61
-63
-66
-66
-64
-65
-63
-67
-69
-66
-64
-63
-65
-66
-68
-64
-63
-61
-62
-63
-64
-60
-59
-58
-60
-62
-62
-60
-58
-58
-57
-58
-59
-57
-54
-55
-55
-56
-58
-58
-56
-56
-54
-56
-59
-58
-54
-57
-57
-58
-60
-57
-58
-59
-61
-61
-63
-60
-60
-60
-62
-63
-67
-64
-62
-63
-65
-65
-68
-67
-67
-66
-68
-69
-70
-69
-67
-67
-69
-75
-74
-72
-69
-70
-71
-73
-76
-74
-73
-72
-74
-74
-75
-74
-74
-73
-74
-76
-76
-75
-73
-72
-73
-71
-71
-71
-67
-62
-62
-60
-59
-59
-56
-55
-54
-54
-53
-52
-51
-51
-49
-48
-51
-49
-50
-52
-55
-58
-62
-64
-61
-58
-57
-58
-61
-62
-65
-67
-67
-72
-76
-77
-76
-78
-81
-84
-86
-85
-84
-86
-85
-88
-87
-85
-86
-85
-85
-86
-88
-89
-84
-83
-85
-85
-89
-90
-96
-106
-116
-118
-113
-96
-72
-30
36
118
197
274
333
364
365
331
243
128
18
-56
-96
-106
-101
-85
-69
-59
-63
-74
-80
-78
-77
-77
-82
-86
-89
-89
-87
-87
-91
-93
-94
-93
-91
-91
-91
-93
-96
-95
-93
-93
-93
-92
-95
-94
-93
-90
-90
-92
-94
-91
-89
-88
-87
-87
-88
-89
-86
-82
-82
-82
-81
-80
-76
-73
-72
-71
-69
-66
-61
-60
-57
-54
-52
-46
-44
-40
-37
-32
-30
-24
-19
-15
-10
-7
-7
-1
5
7
10
9
12
14
18
21
23
24
22
24
24
26
26
21
17
18
16
12
7
-1
-5
-5
-9
-13
-21
-29
-33
-36
-39
-44
-48
-50
-54
-56
-56
-55
-57
-61
-64
-64
-62
-63
-62
-65
-70
-70
-66
-65
-65
-68
-69
-66
-66
-66
-64
-68
-68
-65
-61
-63
-61
-62
-63
-61
-60
-59
-60
-60
-62
-60
-58
-55
-57
-59
-60
-59
-54
-55
-55
-59
-59
-58
-55
-57
-54
-58
-58
-57
-55
-54
-57
-58
-61
-59
-59
-58
-58
-61
-62
-62
-60
-63
-62
-64
-66
-64
-66
-62
-65
-67
-69
-67
-68
-66
-68
-70
-71
-71
-67
-67
-69
-70
-73
-73
-73
-69
-72
-72
-73
-74
-73
-70
-70
-74
-74
-72
-69
-70
-72
-74
-75
-72
-72
-70
-69
-71
-70
-66
-63
-58
-58
-59
-59
-58
-54
-52
-51
-53
-54
-51
-49
-49
-50
-49
-50
-48
-48
-50
-54
-55
-59
-62
-60
-56
-56
-56
-56
-58
-60
-62
-65
-70
-70
-73
-73
-74
-76
-76
-80
-81
-83
-83
-84
-85
-89
-88
-84
-85
-85
-86
-86
-84
-82
-83
-87
-83
-84
-83
-83
-82
-82
-84
-90
-94
-106
-116
-119
-112
-103
-86
-57
-11
54
120
187
253
315
357
375
360
311
218
110
16
-54
-88
-102
-102
-97
-82
-69
-62
-65
-69
-71
-75
-75
-79
-82
-79
-80
-84
-87
-89
-91
-92
-89
-92
-90
-93
-94
-92
-88
-90
-92
-92
-97
-93
-93
-91
-92
-94
-94
-91
-92
-91
-89
-90
-93
-89
-87
-84
-86
-86
-89
-87
-83
-82
-82
-83
-81
-82
-78
-76
-73
-73
-72
-72
-65
-63
-59
-58
-58
-55
-50
-45
-41
-41
-37
-34
-28
-25
-24
-20
-19
-15
-8
-4
-1
-1
-1
4
9
14
16
15
17
21
24
26
25
23
23
25
25
27
23
19
16
14
13
9
3
0
-9
-8
-14
-16
-20
-28
-32
-37
-37
-39
-42
-45
-51
-49
-52
-53
-55
-57
-61
-58
-59
-57
-61
-65
-65
-66
-62
-63
-62
-65
-65
-65
-64
-65
-65
-64
-64
-62
-60
-59
-63
-60
-62
-62
-60
-58
-58
-58
-61
-57
-56
-55
-55
-55
-56
-57
-54
-54
-54
-55
-56
-54
-54
-54
-54
-54
-56
-55
-53
-53
-54
-56
-57
-56
-57
-57
-56
-58
-60
-59
-56
-56
-55
-60
-62
-60
-59
-60
-60
-62
-64
-64
-62
-61
-64
-63
-68
-66
-64
-65
-66
-66
-68
-67
-68
-66
-68
-68
-73
-70
-71
-69
-71
-73
-72
-73
-72
-71
-71
-72
-75
-73
-74
-72
-71
-74
-75
-72
-72
-70
-70
-74
-75
-73
-72
-72
-72
-72
-73
-70
-65
-63
-61
-60
-61
-59
-57
-55
-57
-55
-55
-51
-48
-49
-48
-50
-49
-47
-47
-49
-51
-57
-62
-63
-62
-58
-58
-58
-61
-62
-64
-66
-70
-71
-74
-73
-74
-77
-79
-81
-82
-82
-80
-80
-82
-86
-88
-85
-86
-85
-83
-85
-84
-83
-80
-81
-82
-83
-83
-81
-80
-82
-84
-95
-106
-112
-112
-101
-88
-63
-21
44
114
182
251
307
340
354
334
267
169
70
-10
-66
-95
-105
-104
-91
-73
-63
-59
-69
-75
-78
-79
-75
-76
-80
-85
-86
-89
-87
-86
-86
-85
-89
-89
-91
-89
-86
-86
-90
-92
-89
-89
-87
-88
-89
-91
-90
-87
-85
-87
-89
-90
-88
-85
-84
-85
-85
-86
-83
-81
-80
-79
-80
-80
-76
-74
-74
-73
-72
-73
-68
-65
-62
-61
-60
-57
-53
-49
-45
-43
-44
-39
-33
-29
-24
-22
-22
-18
-13
-8
-4
-2
1
3
8
9
14
14
13
15
15
20
23
24
21
18
20
21
19
15
12
5
2
3
-1
-9
-16
-20
-23
-22
-27
-33
-38
-39
-40
-42
-44
-45
-51
-52
-53
-53
-54
-55
-56
-57
-58
-57
-57
-58
-60
-62
-61
-59
-58
-58
-59
-60
-60
-57
-57
-58
-60
-58
-59
-56
-56
-56
-55
-57
-55
-53
-53
-52
-52
-54
-52
-51
-49
-49
-49
-49
-50
-47
-49
-47
-52
-52
-52
-46
-48
-46
-49
-48
-49
-50
-48
-48
-51
-52
-51
-48
-49
-51
-51
-55
-52
-52
-52
-53
-53
-56
-55
-52
-55
-55
-57
-59
-60
-58
-59
-59
-59
-64
-63
-60
-61
-65
-65
-66
-64
-64
-63
-64
-66
-69
-67
-66
-65
-67
-68
-68
-66
-66
-64
-66
-66
-68
-67
-66
-65
-66
-67
-69
-66
-65
-62
-60
-56
-53
-54
-54
-50
-48
-50
-50
-49
-41
-42
-44
-46
-45
-42
-43
-42
-47
-49
-54
-51
-54
-51
-50
-52
-52
-52
-52
-55
-60
-63
-65
-66
-68
-66
-69
-73
-76
-75
-75
-77
-77
-78
-78
-79
-77
-78
-78
-79
-80
-79
-77
-76
-77
-80
-80
-79
-77
-80
-89
-104
-114
-108
-95
-76
-49
-1
74
158
238
303
347
365
348
284
182
69
-24
-79
-102
-98
-84
-65
-56
-54
-64
-70
-70
-70
-67
-73
-79
-80
-80
-79
-82
-83
-84
-86
-84
-83
-83
-85
-85
-85
-84
-81
-82
-84
-85
-85
-82
-81
-82
-82
-84
-82
-82
-77
-78
-80
-83
-79
-77
-75
-74
-74
-73
-72
-69
-66
-64
-63
-64
-58
-55
-52
-51
-49
-51
-44
-39
-32
-31
-29
-29
-22
-15
-12
-8
-6
-2
2
8
11
11
13
15
18
20
22
26
26
26
27
31
30
30
27
24
23
24
22
17
11
6
5
0
-4
-10
-16
-23
-26
-29
-29
-35
-41
-46
-47
-47
-49
-51
-54
-57
-56
-56
-57
-58
-61
-61
-60
-58
-59
-60
-60
-63
-62
-58
-60
-62
-62
-63
-62
-58
-57
-58
-59
-59
-58
-55
-52
-56
-54
-55
-53
-53
-51
-52
-55
-55
-54
-51
-50
-51
-53
-53
-53
-52
-50
-52
-53
-53
-53
-51
-50
-51
-53
-55
-52
-53
-52
-53
-58
-62
-58
-56
-56
-58
-61
-63
-60
-59
-60
-60
-62
-63
-63
-63
-62
-64
-66
-66
-67
-65
-65
-66
-68
-71
-68
-67
-68
-67
-70
-69
-68
-70
-69
-68
-69
-73
-71
-69
-67
-67
-70
-70
-69
-64
-61
-60
-56
-58
-54
-52
-51
-51
-50
-52
-50
-47
-44
-48
-46
-45
-45
-44
-45
-49
-51
-55
-55
-54
-54
-52
-53
-54
-58
-59
-61
-66
-68
-72
-71
-72
-73
-75
-77
-81
-80
-79
-77
-81
-82
-83
-82
-81
-81
-81
-82
-81
-80
-78
-74
-79
-81
-81
-83
-82
-84
-91
-105
-120
-116
-105
-90
-70
-35
23
102
181
251
312
357
371
351
280
175
60
-31
-78
-96
-97
-91
-81
-66
-56
-59
-64
-68
-70
-75
-75
-74
-77
-78
-81
-85
-89
-86
-88
-88
-89
-88
-90
-88
-86
-87
-87
-88
-91
-88
-86
-85
-87
-86
-87
-86
-83
-82
-81
-82
-86
-84
-82
-78
-79
-77
-77
-75
-75
-71
-72
-71
-72
-69
-66
-63
-62
-61
-58
-55
-50
-47
-44
-43
-40
-34
-28
-26
-22
-19
-15
-12
-6
-2
0
3
5
10
12
19
20
21
23
27
30
30
33
33
32
33
34
32
33
30
24
25
22
20
14
8
3
0
-4
-8
-14
-20
-26
-29
-31
-32
-36
-41
-46
-44
-46
-49
-51
-52
-53
-52
-53
-54
-55
-56
-56
-55
-54
-54
-57
-55
-56
-55
-55
-54
-55
-57
-56
-53
-49
-49
-49
-49
-51
-51
-50
-46
-48
-46
-50
-46
-46
-43
-44
-45
-50
-46
-42
-41
-44
-44
-46
-45
-39
-39
-41
-44
-47
-45
-44
-46
-47
-48
-49
-49
-47
-47
-48
-53
-51
-53
-51
-50
-54
-57
-55
-57
-53
-55
-59
-60
-62
-57
-57
-57
-58
-60
-63
-61
-61
-58
-61
-61
-64
-64
-63
-60
-62
-63
-65
-63
-61
-61
-60
-61
-61
-60
-56
-55
-50
-48
-50
-50
-46
-46
-46
-44
-43
-41
-39
-40
-40
-40
-39
-38
-38
-41
-43
-49
-52
-51
-48
-48
-47
-47
-51
-52
-54
-54
-58
-62
-62
-64
-64
-64
-66
-69
-70
-74
-69
-70
-71
-71
-73
-74
-70
-71
-73
-73
-76
-72
-69
-71
-74
-71
-74
-73
-73
-78
-92
-105
-111
-103
-89
-71
-43
10
80
162
234
298
346
368
362
310
214
102
4
-59
-87
-92
-90
-81
-63
-47
-49
-54
-59
-59
-60
-63
-66
-67
-67
-69
-74
-73
-75
-76
-75
-75
-75
-77
-81
-78
-77
-75
-77
-77
-80
-76
-76
-75
-76
-76
-76
-73
-73
-69
-72
-72
-73
-74
-69
-68
-70
-68
-71
-67
-65
-61
-62
-63
-62
-58
-54
-52
-52
-53
-50
-44
-42
-38
-36
-35
-35
-29
-25
-21
-15
-11
-10
-8
-2
4
6
7
9
12
17
20
23
23
24
29
30
31
33
35
33
37
36
36
36
33
30
27
26
21
16
12
4
3
-1
-6
-10
-12
-20
-21
-26
-27
-30
-34
-37
-38
-38
-38
-40
-43
-44
-43
-45
-42
-43
-45
-47
-45
-45
-45
-49
-47
-47
-46
-43
-42
-43
-45
-44
-42
-40
-40
-40
-41
-45
-39
-40
-38
-39
-41
-40
-42
-39
-39
-37
-39
-38
-39
-36
-34
-36
-38
-39
-40
-38
-37
-38
-40
-43
-43
-40
-37
-41
-42
-44
-45
-42
-40
-41
-46
-46
-46
-48
-48
-48
-52
-54
-52
-50
-50
-50
-53
-55
-54
-53
-52
-55
-59
-59
-58
-58
-56
-57
-59
-60
-58
-57
-59
-58
-61
-62
-60
-59
-58
-59
-59
-60
-59
-58
-55
-56
-54
-52
-48
-44
-45
-45
-44
-43
-41
-38
-37
-35
-36
-39
-37
-36
-34
-32
-37
-40
-42
-44
-46
-46
-47
-45
-43
-40
-41
-45
-49
-54
-55
-57
-56
-60
-63
-66
-66
-65
-68
-71
-72
-73
-72
-70
-69
-71
-72
-73
-72
-70
-71
-69
-75
-74
-72
-70
-70
-70
-75
-82
-90
-100
-103
-94
-81
-62
-23
35
107
179
243
298
341
359
351
305
221
118
24
-43
-82
-100
-101
-90
-68
-50
-47
-54
-59
-65
-64
-64
-64
-68
-69
-75
-75
-75
-74
-75
-78
-80
-81
-80
-78
-78
-82
-82
-79
-79
-78
-78
-80
-84
-81
-78
-78
-78
-79
-81
-76
-76
-73
-76
-77
-79
-76
-72
-72
-72
-72
-71
-70
-68
-66
-66
-67
-66
-63
-59
-56
-56
-57
-55
-51
-46
-44
-40
-38
-37
-33
-27
-23
-19
-19
-18
-13
-9
-6
-3
1
3
7
11
14
18
18
19
22
24
25
26
25
25
26
27
28
24
20
17
14
13
9
3
-1
-9
-12
-16
-22
-24
-31
-35
-36
-39
-40
-43
-47
-51
-49
-48
-51
-51
-56
-55
-56
-53
-53
-53
-57
-57
-58
-55
-57
-58
-59
-60
-58
-54
-54
-53
-54
-56
-51
-50
-47
-50
-51
-51
-48
-44
-44
-46
-47
-48
-47
-45
-45
-45
-47
-47
-47
-44
-47
-45
-47
-49
-48
-47
-45
-48
-49
-53
-50
-51
-50
-51
-53
-55
-54
-54
-53
-55
-57
-58
-59
-57
-57
-58
-61
-60
-62
-61
-63
-61
-64
-67
-64
-62
-62
-63
-67
-69
-67
-64
-62
-66
-67
-70
-68
-65
-64
-68
-66
-70
-67
-64
-62
-62
-61
-59
-55
-50
-52
-51
-53
-55
-53
-46
-44
-45
-47
-49
-44
-43
-43
-43
-48
-50
-52
-55
-55
-58
-59
-56
-53
-52
-56
-59
-62
-67
-66
-64
-66
-70
-74
-76
-75
-77
-77
-80
-81
-84
-81
-78
-77
-80
-83
-82
-81
-78
-80
-80
-80
-81
-79
-78
-79
-81
-88
-100
-111
-119
-116
-106
-94
-74
-32
33
103
173
235
293
341
362
356
312
230
117
17
-55
-89
-102
-100
-87
-69
-55
-56
-64
-70
-72
-73
-74
-72
-78
-83
-86
-85
-84
-87
-86
-90
-90
-89
-89
-88
-90
-92
-94
-93
-90
-89
-89
-88
-91
-89
-86
-89
-88
-89
-90
-87
-86
-85
-85
-89
-89
-84
-82
-80
-82
-81
-81
-79
-76
-74
-74
-73
-72
-67
-65
-65
-62
-60
-60
-56
-52
-48
-47
-46
-41
-36
-31
-27
-28
-27
-21
-16
-12
-6
-5
-1
-2
4
7
10
11
13
13
17
19
22
21
19
19
21
20
17
15
10
5
4
0
-3
-10
-13
-18
-22
-25
-30
-35
-40
-45
-47
-48
-51
-54
-57
-60
-58
-60
-60
-62
-62
-65
-62
-61
-62
-65
-64
-66
-66
-64
-62
-63
-65
-65
-62
-61
-59
-60
-62
-63
-60
-59
-57
-58
-59
-59
-59
-58
-56
-58
-60
-58
-56
-54
-56
-55
-55
-56
-57
-54
-54
-55
-58
-60
-59
-58
-58
-59
-62
-60
-58
-55
-54
-56
-59
-61
-61
-60
-62
-62
-66
-64
-63
-63
-64
-67
-67
-68
-68
-66
-67
-68
-70
-72
-72
-69
-69
-74
-72
-73
-72
-69
-71
-73
-75
-77
-74
-74
-73
-75
-75
-76
-76
-76
-75
-74
-76
-76
-73
-70
-70
-68
-67
-67
-63
-61
-62
-59
-59
-61
-58
-54
-50
-54
-55
-56
-52
-49
-51
-54
-57
-61
-63
-62
-62
-64
-62
-62
-61
-63
-64
-69
-72
-75
-75
-74
-77
-80
-82
-85
-82
-81
-84
-86
-88
-89
-85
-85
-85
-86
-88
-88
-88
-85
-86
-83
-86
-87
-87
-86
-86
-86
-88
-90
-94
-102
-113
-116
-113
-102
-84
-58
-10
56
123
186
243
290
316
324
304
250
166
77
0
-60
-94
-109
-110
-101
-84
-70
-67
-72
-77
-79
-81
-81
-83
-82
-83
-85
-88
-90
-91
-94
-91
-92
-92
-93
-94
-94
-95
-94
-92
-96
-97
-98
-97
-94
-94
-94
-94
-94
-95
-91
-93
-92
-94
-94
-93
-91
-89
-90
-91
-91
-88
-86
-86
-85
-86
-87
-83
-81
-76
-77
-77
-75
-73
-68
-67
-69
-65
-61
-58
-54
-51
-50
-47
-43
-37
-35
-31
-29
-27
-23
-20
-14
-12
-10
-8
-6
-3
1
4
6
5
6
9
11
9
9
9
5
7
7
6
2
-4
-7
-10
-10
-15
-20
-25
-33
-31
-34
-38
-44
-47
-49
-47
-50
-52
-54
-57
-59
-59
-58
-59
-58
-62
-62
-62
-63
-61
-61
-65
-67
-66
-65
-62
-63
-63
-66
-64
-61
-62
-60
-62
-63
-59
-58
-57
-59
-59
-60
-59
-56
-56
-57
-57
-58
-55
-56
-54
-52
-53
-55
-54
-51
-49
-52
-55
-54
-54
-52
-53
-55
-55
-56
-55
-52
-52
-53
-57
-59
-59
-55
-56
-58
-62
-64
-64
-59
-59
-61
-63
-63
-64
-64
-62
-66
-69
-68
-69
-67
-67
-69
-74
-71
-72
-71
-70
-71
-74
-74
-74
-71
-72
-74
-75
-76
-74
-73
-73
-74
-77
-80
-76
-75
-74
-75
-77
-80
-78
-76
-78
-77
-79
-80
-75
-74
-69
-70
-67
-65
-63
-62
-62
-62
-62
-63
-58
-56
-56
-57
-57
-58
-54
-52
-52
-54
-58
-58
-60
-59
-63
-66
-66
-67
-62
-61
-63
-67
-72
-71
-73
-76
-76
-79
-83
-85
-83
-84
-86
-89
-89
-91
-90
-88
-89
-92
-92
-95
-93
-91
-89
-93
-93
-92
-91
-89
-89
-91
-92
-92
-91
-91
-93
-98
-110
-125
-129
-126
-119
-107
-96
-72
-29
37
106
175
238
294
338
354
341
288
198
89
-5
-66
-98
-107
-109
-104
-89
-71
-64
-68
-77
-80
-83
-81
-83
-84
-88
-89
-93
-92
-96
-95
-98
-98
-97
-97
-100
-98
-100
-101
-101
-99
-99
-99
-101
-103
-99
-98
-100
-99
-100
-100
-98
-97
-97
-97
-98
-98
-95
-93
-94
-94
-94
-95
-93
-90
-89
-89
-89
-88
-87
-83
-81
-80
-82
-80
-77
-73
-69
-69
-68
-65
-60
-57
-53
-52
-52
-48
-42
-39
-35
-32
-28
-29
-24
-20
-15
-13
-11
-8
-4
-2
2
3
5
5
7
9
8
11
8
9
9
10
7
5
1
-7
-5
-10
-12
-16
-24
-29
-34
-34
-39
-44
-47
-53
-55
-54
-58
-58
-62
-67
-65
-67
-68
-69
-71
-71
-71
-71
-74
-71
-73
-73
-73
-69
-72
-70
-72
-73
-71
-68
-70
-69
-71
-72
-72
-68
-67
-65
-68
-69
-67
-65
-67
-65
-67
-65
-64
-62
-65
-63
-65
-67
-63
-64
-61
-61
-65
-66
-63
-64
-63
-65
-67
-68
-66
-65
-68
-68
-70
-72
-69
-69
-67
-70
-73
-72
-75
-72
-71
-76
-78
-76
-77
-77
-77
-81
-83
-80
-81
-80
-81
-81
-83
-84
-84
-82
-81
-85
-85
-86
-83
-84
-82
-81
-83
-86
-83
-84
-82
-83
-84
-84
-84
-81
-84
-85
-86
-87
-84
-82
-80
-82
-83
-82
-79
-74
-71
-71
-71
-71
-71
-66
-66
-65
-64
-65
-60
-60
-60
-58
-58
-61
-59
-62
-61
-65
-67
-72
-72
-72
-71
-69
-68
-71
-72
-73
-76
-79
-82
-85
-85
-84
-87
-88
-92
-93
-95
-92
-93
-96
-96
-95
-96
-95
-95
-96
-95
-97
-97
-95
-95
-95
-98
-99
-95
-93
-96
-96
-98
-98
-98
-100
-111
-125
-133
-131
-118
-102
-84
-44
15
90
165
233
293
332
350
341
293
203
90
-11
-78
-107
-113
-113
-109
-96
-82
-76
-78
-84
-87
-90
-91
-95
-94
-93
-94
-100
-101
-103
-103
-103
-102
-104
-107
-106
-107
-104
-103
-105
-108
-107
-106
-103
-104
-107
-108
-107
-103
-103
-104
-104
-106
-104
-104
-99
-100
-99
-100
-103
-100
-95
-94
-91
-92
-95
-91
-88
-86
-86
-84
-83
-79
-73
-71
-72
-69
-65
-60
-54
-52
-50
-47
-44
-38
-35
-31
-28
-27
-25
-20
-15
-15
-13
-9
-9
-3
0
1
1
2
4
5
6
4
3
1
-2
-3
-5
-8
-14
-20
-24
-27
-32
-36
-42
-47
-53
-54
-55
-59
-64
-68
-69
-68
-68
-71
-73
-74
-77
-76
-76
-75
-76
-77
-78
-79
-75
-74
-76
-79
-80
-76
-75
-73
-75
-75
-76
-73
-73
-70
-70
-71
-72
-70
-67
-67
-69
-69
-69
-67
-66
-64
-66
-66
-67
-67
-64
-64
-66
-67
-70
-68
-67
-66
-67
-71
-70
-69
-72
-71
-73
-73
-75
-75
-72
-75
-77
-77
-82
-81
-78
-79
-81
-81
-80
-79
-81
-78
-81
-84
-84
-80
-82
-82
-83
-87
-86
-84
-84
-85
-85
-88
-87
-86
-86
-84
-85
-87
-89
-87
-84
-85
-86
-87
-91
-86
-85
-84
-85
-86
-88
-87
-83
-87
-86
-87
-88
-85
-82
-85
-86
-85
-85
-85
-80
-79
-74
-75
-76
-72
-68
-67
-67
-66
-66
-66
-62
-59
-60
-62
-62
-60
-61
-60
-63
-67
-71
-70
-71
-71
-68
-68
-68
-68
-68
-72
-75
-79
-81
-79
-80
-81
-84
-85
-89
-90
-87
-88
-90
-90
-92
-90
-89
-90
-89
-91
-92
-92
-89
-89
-89
-93
-91
-91
-89
-89
-88
-93
-93
-89
-86
-85
-86
-89
-88
-87
-89
-97
-112
-120
-117
-103
-83
-59
-8
63
145
225
295
347
366
348
281
165
52
-43
-91
-105
-107
-98
-78
-63
-61
-69
-76
-76
-76
-74
-77
-81
-86
-91
-85
-88
-89
-88
-91
-90
-86
-86
-89
-90
-91
-88
-87
-85
-86
-88
-88
-87
-84
-82
-83
-86
-86
-82
-80
-77
-80
-79
-80
-77
-74
-72
-72
-72
-73
-67
-64
-61
-61
-61
-59
-56
-50
-46
-45
-42
-41
-35
-31
-25
-23
-21
-19
-12
-6
-1
-2
3
4
8
14
16
17
19
19
21
27
28
28
27
25
26
26
27
23
18
15
15
12
9
6
-1
-8
-12
-13
-18
-23
-26
-32
-32
-34
-36
-37
-42
-44
-44
-44
-45
-48
-49
-50
-49
-46
-47
-47
-50
-50
-46
-45
-43
-45
-47
-47
-47
-44
-43
-44
-44
-45
-40
-41
-40
-39
-42
-42
-39
-37
-35
-37
-37
-37
-38
-36
-35
-34
-36
-37
-35
-38
-33
-35
-38
-37
-36
-34
-33
-36
-37
-39
-37
-37
-37
-39
-41
-43
-41
-40
-40
-42
-43
-46
-44
-44
-44
-46
-47
-49
-46
-47
-47
-46
-48
-51
-50
-49
-48
-53
-54
-53
-50
-51
-51
-52
-54
-55
-54
-53
-51
-55
-56
-57
-54
-53
-53
-55
-55
-56
-54
-56
-53
-54
-56
-56
-55
-54
-52
-54
-55
-54
-51
-47
-43
-42
-41
-40
-37
-36
-35
-36
-35
-34
-32
-29
-29
-30
-31
-31
-29
-31
-34
-36
-43
-43
-40
-37
-36
-38
-40
-42
-44
-46
-48
-51
-53
-55
-57
-58
-58
-60
-62
-63
-63
-61
-61
-61
-65
-64
-61
-60
-62
-65
-64
-66
-64
-66
-64
-65
-63
-64
-63
-60
-63
-60
-61
-63
-59
-60
-58
-60
-63
-65
-73
-84
-93
-92
-83
-67
-42
9
83
167
241
306
358
378
371
312
205
81
-14
-65
-80
-83
-72
-55
-39
-36
-43
-48
-50
-51
-52
-52
-56
-59
-62
-62
-63
-64
-61
-62
-65
-67
-65
-63
-64
-66
-68
-67
-65
-66
-66
-67
-66
-65
-65
-62
-63
-62
-63
-64
-61
-59
-58
-58
-61
-59
-58
-55
-52
-53
-53
-52
-50
-46
-44
-43
-41
-40
-37
-31
-29
-28
-25
-22
-17
-13
-9
-7
-7
-3
4
9
11
10
12
13
18
20
25
26
26
26
31
33
33
33
32
30
31
33
31
23
20
17
15
14
10
4
-2
-7
-10
-12
-18
-22
-28
-32
-33
-32
-34
-37
-40
-44
-44
-44
-45
-44
-50
-50
-49
-46
-45
-48
-51
-52
-51
-49
-48
-50
-50
-52
-49
-48
-49
-49
-51
-51
-47
-43
-44
-43
-48
-48
-43
-43
-44
-47
-46
-46
-44
-43
-42
-44
-45
-46
-44
-43
-41
-45
-45
-42
-45
-43
-43
-45
-48
-48
-45
-45
-45
-46
-48
-49
-51
-49
-49
-49
-52
-51
-51
-50
-52
-54
-55
-58
-56
-58
-57
-57
-63
-64
-62
-59
-59
-61
-65
-66
-65
-66
-62
-64
-66
-68
-65
-64
-65
-67
-70
-70
-71
-67
-69
-69
-71
-73
-69
-68
-67
-70
-71
-73
-73
-69
-69
-72
-74
-76
-75
-71
-71
-74
-74
-74
-71
-67
-66
-66
-65
-62
-59
-55
-55
-56
-58
-56
-54
-53
-53
-52
-53
-54
-54
-55
-58
-61
-66
-68
-66
-63
-60
-60
-62
-68
-69
-69
-71
-72
-76
-79
-79
-76
-79
-81
-84
-87
-87
-83
-85
-87
-87
-89
-86
-86
-85
-85
-88
-92
-88
-89
-88
-89
-91
-93
-92
-88
-89
-88
-88
-89
-87
-86
-86
-87
-91
-93
-99
-108
-118
-121
-113
-102
-83
-53
-2
67
133
195
257
305
329
331
298
221
116
15
-51
-89
-109
-118
-115
-96
-78
-71
-75
-81
-81
-80
-78
-82
-88
-92
-93
-93
-95
-92
-96
-97
-97
-95
-94
-96
-100
-99
-97
-95
-95
-96
-98
-98
-99
-95
-95
-95
-97
-96
-96
-95
-94
-94
-94
-96
-94
-91
-91
-93
-92
-90
-89
-86
-86
-85
-86
-88
-81
-77
-78
-76
-77
-76
-72
-67
-68
-66
-62
-61
-55
-52
-49
-45
-43
-44
-38
-33
-31
-28
-28
-27
-22
-18
-16
-13
-14
-12
-9
-4
-4
-5
-5
-5
-1
-1
-1
-4
-6
-8
-10
-10
-12
-17
-20
-26
-28
-31
-35
-40
-47
-49
-52
-54
-55
-59
-64
-66
-65
-66
-70
-71
-72
-75
-73
-75
-76
-75
-80
-81
-77
-78
-76
-78
-80
-82
-79
-79
-78
-77
-80
-80
-80
-77
-78
-75
-77
-78
-77
-74
-73
-75
-74
-76
-76
-73
-71
-71
-72
-73
-74
-71
-68
-71
-72
-73
-70
-69
-70
-73
-73
-72
-74
-71
-71
-72
-76
-74
-74
-75
-73
-76
-79
-79
-78
-78
-78
-81
-83
-84
-83
-81
-82
-87
-86
-89
-87
-86
-86
-89
-89
-89
-89
-88
-88
-90
-92
-93
-93
-92
-91
-93
-94
-97
-93
-93
-93
-96
-95
-99
-95
-93
-94
-96
-99
-98
-95
-93
-93
-94
-94
-91
-87
-82
-80
-81
-81
-83
-79
-77
-73
-76
-78
-80
-80
-76
-75
-75
-78
-82
-83
-85
-87
-88
-89
-89
-82
-83
-84
-88
-94
-98
-97
-98
-101
-102
-105
-106
-111
-109
-110
-113
-112
-113
-112
-111
-111
-110
-114
-115
-112
-111
-112
-111
-114
-113
-111
-109
-111
-112
-115
-116
-117
-123
-135
-145
-145
-131
-113
-89
-41
27
103
178
248
299
324
320
282
198
90
-9
-81
-123
-135
-133
-125
-107
-93
-90
-96
-103
-104
-104
-106
-108
-111
-114
-116
-115
-116
-119
-122
-127
-123
-120
-121
-122
-124
-124
-122
-120
-120
-122
-123
-122
-123
-120
-119
-121
-121
-121
-120
-118
-118
-118
-121
-119
-119
-115
-114
-113
-115
-114
-112
-108
-110
-109
-108
-109
-104
-104
-100
-100
-99
-98
-95
-90
-89
-84
-83
-83
-74
-70
-66
-66
-62
-60
-56
-49
-45
-41
-41
-38
-34
-29
-28
-25
-24
-23
-21
-18
-13
-15
-14
-13
-12
-10
-9
-12
-16
-16
-19
-17
-19
-25
-30
-35
-36
-40
-44
-48
-54
-62
-66
-67
-72
-74
-77
-85
-86
-83
-85
-91
-93
-94
-95
-94
-93
-94
-97
-101
-99
-99
-97
-98
-99
-100
-98
-98
-98
-96
-101
-98
-98
-95
-97
-95
-96
-102
-97
-95
-94
-94
-94
-95
-92
-91
-89
-89
-90
-91
-88
-87
-86
-89
-88
-89
-87
-87
-86
-88
-89
-89
-88
-86
-87
-90
-92
-90
-92
-89
-90
-92
-92
-93
-92
-91
-94
-95
-96
-99
-98
-95
-95
-98
-101
-103
-102
-100
-99
-101
-103
-104
-103
-100
-102
-103
-105
-104
-105
-103
-103
-104
-106
-107
-109
-106
-106
-109
-109
-110
-108
-108
-108
-109
-110
-109
-109
-108
-109
-109
-110
-113
-111
-110
-110
-109
-111
-109
-109
-105
-106
-105
-104
-103
-97
-92
-92
-93
-93
-95
-92
-88
-87
-87
-88
-90
-88
-85
-83
-84
-88
-90
-92
-92
-97
-97
-97
-95
-93
-93
-95
-100
-103
-106
-104
-105
-108
-111
-114
-116
-117
-116
-119
-120
-122
-122
-120
-120
-119
-121
-123
-124
-122
-120
-123
-125
-123
-122
-121
-116
-118
-118
-118
-120
-122
-127
-138
-147
-152
-146
-132
-112
-80
-20
53
131
206
273
320
337
319
249
145
34
-55
-113
-131
-139
-136
-129
-112
-99
-97
-103
-108
-109
-110
-110
-111
-114
-118
-116
-119
-120
-122
-125
-120
-121
-121
-123
-124
-126
-124
-121
-122
-122
-125
-126
-124
-123
-124
-124
-124
-126
-125
-122
-120
-123
-123
-121
-120
-117
-117
-118
-118
-118
-116
-115
-113
-112
-113
-112
-110
-104
-103
-105
-105
-102
-97
-93
-90
-89
-88
-86
-80
-77
-76
-73
-68
-65
-61
-55
-53
-49
-47
-44
-37
-34
-33
-31
-30
-28
-25
-20
-19
-17
-16
-17
-14
-11
-9
-10
-11
-15
-13
-14
-16
-19
-24
-28
-28
-31
-34
-41
-47
-52
-55
-60
-63
-69
-72
-76
-79
-77
-83
-85
-88
-91
-90
-88
-91
-93
-95
-96
-94
-94
-95
-96
-97
-97
-94
-94
-94
-95
-97
-96
-95
-93
-92
-93
-96
-97
-94
-91
-89
-91
-93
-92
-91
-87
-88
-88
-90
-90
-88
-88
-88
-90
-89
-89
-86
-86
-84
-85
-85
-87
-84
-85
-86
-87
-87
-88
-87
-84
-83
-87
-88
-89
-89
-89
-89
-89
-92
-94
-92
-91
-92
-93
-95
-96
-93
-92
-94
-96
-96
-99
-96
-95
-95
-99
-99
-101
-101
-100
-100
-101
-102
-101
-100
-100
-97
-101
-104
-105
-102
-101
-102
-102
-105
-106
-104
-102
-101
-101
-103
-103
-101
-103
-102
-103
-103
-105
-101
-98
-100
-101
-100
-102
-100
-98
-95
-94
-96
-95
-91
-87
-88
-85
-84
-87
-83
-80
-81
-78
-78
-78
-78
-78
-77
-77
-78
-81
-79
-79
-82
-84
-87
-88
-88
-82
-81
-79
-83
-83
-87
-87
-89
-92
-96
-101
-101
-100
-101
-100
-104
-106
-106
-105
-105
-108
-109
-110
-107
-106
-106
-106
-108
-109
-109
-105
-106
-107
-107
-109
-105
-103
-103
-105
-110
-110
-115
-120
-128
-136
-133
-122
-108
-92
-59
-7
60
126
187
246
296
325
333
309
244
150
48
-34
-88
-118
-127
-121
-113
-97
-84
-84
-87
-89
-91
-94
-99
-101
-97
-98
-99
-103
-108
-107
-107
-106
-106
-107
-109
-112
-109
-108
-108
-110
-110
-114
-110
-108
-107
-110
-108
-109
-108
-105
-105
-106
-108
-108
-106
-100
-101
-103
-103
-102
-101
-98
-99
-98
-99
-98
-96
-92
-91
-88
-88
-89
-86
-80
-79
-77
-76
-75
-72
-65
-63
-60
-57
-54
-50
-43
-41
-40
-38
-34
-27
-25
-20
-18
-18
-16
-11
-7
-4
-3
-1
-2
3
6
7
5
3
2
4
5
3
0
-2
-6
-7
-10
-9
-15
-22
-25
-30
-32
-36
-41
-45
-48
-51
-53
-57
-60
-62
-66
-65
-64
-67
-68
-71
-74
-70
-69
-71
-72
-76
-74
-73
-73
-73
-74
-73
-75
-76
-71
-70
-72
-70
-74
-71
-67
-67
-67
-68
-69
-68
-64
-65
-64
-62
-66
-63
-61
-63
-64
-63
-64
-62
-60
-59
-60
-63
-63
-60
-60
-61
-61
-62
-62
-62
-60
-60
-62
-64
-64
-62
-62
-62
-66
-65
-67
-66
-67
-66
-70
-69
-72
-68
-68
-70
-72
-74
-76
-76
-73
-74
-76
-78
-78
-77
-77
-77
-79
-84
-83
-80
-77
-79
-79
-81
-82
-81
-77
-78
-79
-82
-81
-79
-76
-80
-81
-79
-81
-80
-77
-77
-76
-78
-79
-74
-71
-69
-70
-68
-67
-66
-63
-64
-60
-61
-60
-57
-56
-57
-58
-57
-58
-58
-58
-61
-64
-69
-70
-69
-64
-63
-63
-64
-67
-71
-70
-74
-76
-80
-82
-83
-81
-85
-86
-87
-88
-88
-85
-91
-88
-90
-92
-90
-87
-88
-89
-90
-90
-87
-86
-86
-89
-89
-92
-88
-88
-96
-105
-119
-128
-123
-113
-98
-79
-43
18
97
173
246
312
354
372
364
315
213
97
-5
-75
-103
-107
-103
-95
-78
-68
-65
-70
-75
-79
-80
-81
-82
-81
-87
-90
-93
-96
-93
-90
-94
-95
-97
-97
-96
-94
-96
-95
-97
-98
-96
-95
-95
-95
-96
-98
-95
-93
-92
-93
-92
-92
-92
-90
-90
-88
-89
-88
-85
-82
-83
-81
-83
-82
-78
-75
-75
-72
-72
-71
-66
-62
-60
-58
-57
-54
-48
-43
-41
-37
-36
-32
-25
-19
-19
-15
-13
-11
-5
-1
3
5
7
7
12
17
20
20
20
21
23
27
25
23
23
21
22
21
16
9
6
1
-1
-3
-11
-16
-25
-29
-32
-34
-40
-42
-47
-49
-52
-53
-56
-58
-58
-60
-60
-59
-59
-62
-63
-63
-63
-59
-61
-62
-62
-63
-61
-58
-61
-61
-63
-63
-63
-58
-61
-61
-59
-60
-58
-54
-56
-56
-56
-58
-54
-52
-54
-54
-55
-54
-55
-50
-50
-54
-57
-56
-53
-51
-54
-57
-57
-57
-54
-50
-54
-56
-59
-62
-59
-56
-60
-60
-62
-62
-62
-61
-62
-64
-64
-68
-65
-64
-68
-69
-72
-72
-71
-69
-69
-70
-70
-72
-74
-69
-72
-73
-74
-75
-73
-72
-73
-71
-76
-75
-74
-73
-72
-73
-74
-75
-72
-71
-73
-72
-76
-75
-73
-70
-71
-69
-66
-63
-62
-57
-58
-56
-58
-57
-53
-48
-50
-51
-52
-51
-47
-47
-50
-52
-55
-58
-60
-61
-60
-58
-59
-58
-55
-57
-64
-70
-72
-75
-71
-72
-77
-76
-81
-82
-80
-79
-81
-84
-85
-85
-84
-82
-83
-85
-86
-88
-84
-79
-82
-83
-84
-85
-84
-81
-83
-92
-105
-115
-117
-106
-91
-71
-34
28
108
189
258
317
357
372
352
282
167
46
-45
-90
-103
-103
-97
-79
-63
-57
-61
-66
-72
-73
-73
-75
-76
-76
-79
-81
-82
-83
-83
-82
-85
-86
-88
-87
-87
-83
-84
-85
-88
-86
-86
-84
-83
-87
-86
-86
-83
-81
-80
-83
-83
-82
-82
-79
-81
-80
-81
-80
-77
-73
-75
-73
-72
-70
-69
-65
-63
-61
-62
-60
-54
-50
-47
-45
-42
-42
-34
-28
-25
-22
-19
-17
-13
-6
-2
-1
2
5
8
12
16
16
18
20
22
26
27
25
26
24
25
24
22
17
14
11
9
7
2
-8
-13
-17
-18
-23
-27
-30
-37
-39
-41
-41
-43
-46
-48
-50
-50
-49
-49
-50
-54
-53
-54
-51
-52
-56
-56
-53
-53
-52
-52
-54
-59
-55
-53
-50
-49
-50
-52
-54
-51
-48
-48
-47
-47
-48
-47
-44
-44
-46
-46
-45
-45
-42
-42
-44
-45
-46
-44
-41
-43
-44
-46
-44
-46
-42
-44
-45
-49
-51
-49
-48
-50
-49
-53
-51
-53
-52
-53
-52
-53
-56
-56
-54
-54
-55
-58
-59
-57
-53
-55
-57
-60
-63
-59
-58
-59
-60
-64
-64
-63
-62
-63
-65
-67
-64
-63
-61
-62
-64
-64
-66
-64
-61
-63
-65
-65
-68
-65
-64
-61
-61
-64
-60
-55
-52
-46
-49
-52
-48
-45
-41
-42
-44
-44
-42
-43
-39
-39
-42
-42
-44
-43
-45
-45
-53
-56
-55
-49
-45
-46
-51
-55
-58
-59
-59
-59
-62
-65
-67
-66
-66
-70
-72
-75
-74
-74
-72
-74
-74
-74
-75
-71
-73
-72
-71
-72
-73
-72
-70
-71
-72
-74
-75
-80
-88
-98
-105
-99
-87
-67
-33
21
87
159
229
294
338
358
345
286
185
71
-13
-69
-93
-96
-87
-66
-49
-47
-56
-63
-67
-67
-65
-67
-70
-75
-76
-77
-75
-77
-79
-81
-81
-79
-77
-77
-81
-83
-80
-78
-76
-77
-76
-80
-80
-78
-76
-75
-76
-78
-76
-74
-73
-72
-72
-74
-72
-69
-66
-65
-64
-66
-66
-61
-57
-58
-55
-57
-53
-49
-45
-41
-40
-36
-34
-29
-20
-18
-16
-11
-10
-3
1
4
7
7
10
14
20
23
24
24
28
30
30
32
30
27
25
27
23
21
16
10
5
3
2
-4
-11
-16
-21
-22
-26
-28
-32
-37
-39
-39
-39
-43
-45
-46
-48
-47
-48
-50
-51
-51
-51
-49
-46
-46
-48
-50
-49
-48
-44
-46
-45
-49
-48
-45
-42
-42
-44
-44
-42
-44
-41
-42
-41
-43
-42
-41
-41
-40
-42
-43
-46
-41
-41
-43
-42
-40
-42
-40
-40
-39
-42
-41
-43
-41
-38
-41
-45
-46
-45
-46
-47
-43
-46
-48
-46
-46
-47
-46
-48
-49
-51
-50
-48
-49
-50
-55
-55
-56
-54
-55
-56
-58
-59
-57
-56
-55
-58
-58
-61
-57
-56
-58
-58
-60
-61
-60
-57
-58
-60
-61
-61
-60
-58
-60
-60
-61
-61
-58
-54
-52
-50
-49
-46
-44
-42
-42
-44
-44
-42
-39
-37
-38
-39
-39
-37
-35
-36
-36
-40
-44
-46
-49
-47
-46
-45
-45
-45
-45
-49
-51
-52
-58
-58
-59
-60
-61
-64
-67
-70
-67
-66
-69
-71
-74
-72
-70
-70
-71
-71
-76
-73
-71
-71
-70
-72
-72
-74
-70
-69
-70
-71
-77
-85
-94
-104
-105
-101
-87
-66
-29
31
108
182
253
322
372
393
380
326
226
107
7
-58
-87
-95
-91
-76
-58
-45
-48
-57
-61
-64
-63
-65
-64
-69
-75
-77
-77
-75
-78
-79
-79
-81
-80
-76
-79
-81
-81
-80
-78
-77
-78
-80
-81
-80
-79
-75
-76
-77
-79
-79
-76
-73
-75
-72
-75
-74
-72
-71
-67
-68
-69
-67
-63
-62
-59
-58
-61
-58
-53
-49
-44
-43
-41
-38
-32
-29
-23
-19
-18
-14
-9
-6
-1
1
5
9
14
17
19
20
18
22
26
29
31
30
30
31
32
34
34
30
26
25
24
21
19
13
7
2
-2
-5
-9
-15
-22
-25
-27
-29
-33
-36
-41
-44
-43
-44
-45
-47
-52
-51
-53
-50
-49
-50
-55
-55
-52
-51
-49
-52
-53
-52
-52
-53
-49
-53
-53
-54
-53
-49
-50
-50
-52
-50
-48
-44
-45
-47
-48
-46
-44
-42
-42
-44
-45
-46
-44
-42
-42
-45
-46
-45
-45
-42
-46
-46
-45
-44
-44
-44
-44
-44
-46
-45
-46
-43
-49
-50
-51
-51
-48
-49
-50
-49
-53
-52
-52
-50
-50
-51
-53
-54
-54
-53
-56
-57
-57
-58
-55
-55
-57
-58
-59
-59
-58
-58
-58
-59
-60
-61
-59
-57
-59
-62
-62
-61
-63
-59
-58
-58
-61
-60
-60
-58
-58
-59
-63
-61
-62
-60
-59
-63
-63
-59
-54
-52
-46
-46
-49
-48
-45
-42
-44
-43
-41
-42
-40
-38
-39
-39
-39
-37
-36
-39
-39
-43
-47
-49
-50
-49
-46
-45
-47
-50
-50
-52
-55
-58
-61
-62
-62
-62
-63
-66
-69
-71
-73
-70
-72
-73
-75
-75
-73
-72
-73
-74
-79
-78
-76
-74
-71
-72
-74
-75
-73
-70
-73
-77
-89
-103
-110
-109
-96
-82
-59
-9
61
141
218
286
340
376
385
369
312
211
100
1
-60
-85
-90
-91
-85
-66
-52
-47
-54
-63
-66
-67
-67
-65
-69
-73
-76
-80
-78
-78
-78
-79
-83
-84
-82
-81
-81
-83
-85
-86
-82
-79
-80
-81
-83
-83
-81
-79
-79
-80
-83
-80
-77
-73
-73
-74
-75
-74
-73
-71
-68
-69
-71
-69
-66
-60
-61
-60
-59
-57
-53
-49
-46
-45
-45
-40
-33
-27
-25
-23
-20
-17
-10
-6
-2
-2
-1
3
11
13
17
18
19
20
24
30
30
32
30
32
34
35
35
31
24
26
26
24
24
15
11
7
2
2
-4
-9
-17
-22
-23
-25
-29
-34
-41
-44
-44
-44
-45
-50
-51
-51
-52
-48
-49
-52
-53
-56
-54
-52
-52
-55
-58
-59
-56
-52
-52
-54
-53
-53
-53
-49
-51
-52
-54
-53
-48
-47
-46
-48
-52
-48
-46
-44
-45
-46
-47
-48
-44
-44
-44
-46
-48
-48
-44
-45
-46
-45
-47
-47
-47
-47
-47
-48
-50
-48
-46
-47
-46
-49
-52
-53
-51
-50
-50
-54
-54
-53
-53
-53
-52
-56
-60
-57
-59
-57
-58
-61
-63
-62
-62
-60
-57
-61
-62
-61
-61
-59
-60
-63
-66
-67
-66
-64
-66
-69
-69
-67
-67
-64
-64
-67
-69
-69
-67
-64
-64
-67
-66
-67
-66
-66
-65
-66
-66
-66
-65
-63
-59
-55
-54
-51
-53
-49
-49
-50
-53
-52
-48
-46
-45
-45
-48
-45
-42
-39
-40
-43
-46
-49
-50
-51
-52
-54
-54
-52
-53
-51
-52
-58
-62
-66
-63
-62
-67
-70
-74
-74
-70
-72
-72
-77
-77
-78
-76
-74
-75
-76
-76
-77
-78
-75
-76
-76
-77
-76
-75
-73
-73
-73
-79
-78
-82
-92
-106
-109
-104
-91
-72
-38
21
97
170
243
310
348
361
341
277
176
69
-15
-70
-95
-101
-95
-76
-57
-51
-57
-64
-66
-67
-65
-66
-69
-75
-76
-79
-76
-77
-79
-81
-82
-82
-79
-80
-83
-83
-84
-80
-81
-82
-83
-85
-82
-80
-78
-79
-81
-82
-81
-78
-76
-78
-79
-78
-79
-75
-76
-76
-76
-75
-74
-72
-69
-65
-66
-68
-65
-59
-54
-55
-56
-55
-52
-46
-43
-41
-40
-39
-35
-30
-25
-24
-18
-17
-12
-6
-2
-4
-1
0
5
9
14
15
15
17
19
23
26
26
26
26
29
27
29
26
25
21
20
18
14
10
4
-3
-5
-9
-10
-14
-20
-24
-27
-29
-31
-34
-39
-44
-46
-41
-41
-42
-45
-47
-51
-47
-46
-48
-52
-52
-50
-49
-47
-47
-48
-49
-49
-47
-47
-46
-47
-47
-48
-46
-44
-43
-45
-48
-48
-46
-43
-43
-45
-45
-44
-41
-41
-38
-42
-42
-42
-39
-40
-40
-43
-41
-42
-43
-41
-41
-43
-44
-44
-44
-42
-44
-45
-47
-47
-48
-44
-44
-43
-49
-49
-47
-46
-46
-49
-52
-52
-53
-51
-52
-53
-56
-55
-58
-52
-53
-56
-60
-60
-60
-57
-58
-60
-63
-61
-61
-62
-62
-61
-62
-62
-59
-57
-58
-59
-63
-63
-59
-58
-62
-61
-62
-63
-61
-61
-60
-63
-62
-62
-59
-56
-56
-52
-51
-50
-48
-44
-43
-45
-46
-46
-41
-38
-37
-41
-45
-43
-40
-36
-38
-40
-42
-46
-46
-46
-50
-49
-50
-48
-46
-45
-45
-50
-56
-58
-57
-57
-57
-62
-64
-69
-64
-64
-65
-68
-70
-69
-71
-68
-68
-70
-72
-74
-71
-69
-69
-71
-72
-71
-69
-68
-65
-68
-72
-72
-71
-71
-75
-85
-95
-97
-91
-79
-64
-43
-8
51
117
180
237
286
324
345
346
309
229
127
33
-40
-78
-94
-91
-83
-65
-54
-46
-50
-55
-59
-66
-63
-61
-61
-62
-69
-75
-72
-74
-72
-74
-74
-76
-75
-77
-76
-74
-74
-80
-74
-75
-73
-72
-74
-77
-76
-73
-73
-72
-72
-75
-76
-74
-74
-72
-70
-72
-72
-72
-68
-66
-68
-67
-65
-62
-59
-59
-60
-59
-59
-54
-52
-51
-51
-50
-48
-43
-37
-34
-36
-33
-28
-23
-17
-17
-15
-13
-10
-5
0
6
5
7
7
11
16
19
20
22
23
24
29
30
31
29
29
33
34
35
31
27
25
25
23
20
15
9
5
3
1
-3
-9
-15
-20
-22
-23
-26
-32
-35
-37
-35
-40
-39
-42
-46
-44
-46
-45
-44
-48
-49
-49
-48
-45
-46
-48
-50
-52
-50
-48
-49
-48
-49
-47
-44
-46
-42
-44
-47
-47
-44
-41
-41
-43
-44
-45
-41
-38
-39
-39
-40
-39
-36
-35
-38
-39
-41
-41
-37
-38
-36
-37
-40
-39
-35
-34
-35
-39
-41
-38
-37
-36
-37
-38
-42
-42
-41
-39
-40
-41
-45
-45
-44
-42
-43
-46
-48
-48
-48
-45
-47
-49
-52
-54
-50
-49
-49
-51
-54
-53
-52
-50
-51
-53
-53
-56
-56
-53
-55
-54
-56
-54
-55
-54
-54
-57
-58
-58
-58
-57
-55
-59
-58
-57
-56
-54
-54
-55
-54
-53
-50
-45
-44
-43
-43
-43
-41
-40
-38
-37
-36
-35
-34
-31
-32
-33
-32
-32
-33
-32
-35
-38
-43
-43
-43
-40
-39
-39
-39
-43
-44
-46
-51
-52
-57
-60
-59
-60
-60
-63
-66
-68
-69
-67
-66
-68
-71
-68
-67
-66
-66
-67
-69
-69
-68
-65
-66
-67
-68
-69
-71
-75
-86
-102
-109
-100
-88
-66
-28
29
103
182
259
329
378
398
383
320
213
97
-6
-69
-93
-93
-82
-60
-41
-40
-47
-53
-57
-57
-56
-61
-64
-68
-70
-68
-69
-71
-74
-77
-75
-74
-74
-77
-77
-78
-75
-74
-73
-74
-78
-76
-75
-73
-73
-73
-75
-74
-73
-69
-69
-70
-73
-72
-67
-65
-63
-67
-66
-64
-60
-58
-57
-57
-57
-52
-50
-44
-43
-41
-38
-37
-32
-25
-24
-19
-18
-16
-10
-3
0
3
3
7
15
19
23
23
24
28
32
36
37
38
36
40
42
43
40
37
37
35
34
33
26
24
17
13
11
7
1
-7
-14
-17
-19
-24
-26
-31
-36
-36
-37
-38
-39
-41
-45
-44
-47
-45
-45
-44
-46
-48
-46
-43
-45
-48
-48
-48
-46
-43
-44
-43
-47
-45
-42
-41
-40
-41
-41
-41
-39
-38
-37
-38
-40
-41
-38
-34
-35
-38
-39
-38
-37
-36
-35
-36
-39
-38
-39
-36
-36
-38
-40
-40
-39
-39
-38
-40
-41
-42
-41
-39
-40
-43
-43
-44
-43
-43
-44
-44
-50
-46
-45
-41
-47
-48
-49
-53
-53
-51
-52
-52
-55
-57
-55
-53
-55
-57
-55
-58
-55
-55
-57
-58
-58
-58
-57
-54
-55
-55
-59
-58
-58
-55
-55
-57
-60
-61
-55
-56
-56
-57
-56
-53
-52
-46
-41
-41
-46
-44
-40
-41
-41
-38
-38
-38
-34
-34
-33
-35
-36
-35
-37
-37
-41
-45
-47
-46
-40
-40
-43
-47
-52
-54
-54
-57
-56
-60
-66
-65
-63
-64
-66
-67
-70
-71
-68
-67
-68
-67
-70
-71
-69
-65
-64
-66
-70
-69
-68
-70
-74
-86
-105
-105
-97
-84
-63
-23
40
126
214
295
358
390
385
331
224
100
-8
-73
-93
-91
-79
-61
-44
-43
-50
-58
-60
-59
-60
-63
-71
-73
-72
-71
-73
-76
-77
-77
-76
-75
-77
-75
-77
-81
-77
-76
-75
-77
-79
-77
-75
-75
-75
-76
-76
-75
-73
-72
-69
-71
-72
-69
-66
-64
-64
-65
-64
-63
-59
-55
-53
-54
-54
-52
-45
-43
-38
-36
-36
-31
-24
-21
-18
-14
-11
-8
-1
3
5
9
11
16
19
24
26
28
28
31
34
38
41
40
41
40
43
43
41
39
34
30
26
24
24
17
9
5
1
-2
-8
-14
-20
-22
-24
-26
-30
-35
-36
-39
-39
-39
-40
-44
-46
-46
-45
-44
-44
-48
-49
-48
-48
-47
-46
-46
-49
-46
-43
-43
-44
-43
-46
-46
-44
-42
-43
-42
-43
-45
-42
-40
-38
-39
-41
-38
-38
-38
-37
-39
-41
-41
-40
-37
-36
-39
-42
-41
-39
-37
-38
-43
-44
-43
-42
-42
-42
-44
-47
-48
-46
-44
-43
-46
-50
-48
-48
-48
-48
-51
-52
-55
-54
-54
-51
-53
-57
-55
-56
-54
-55
-57
-59
-58
-56
-54
-55
-55
-60
-60
-58
-58
-61
-62
-63
-62
-61
-60
-57
-59
-64
-61
-58
-59
-61
-63
-67
-62
-61
-61
-57
-56
-56
-55
-49
-46
-45
-46
-46
-46
-46
-43
-38
-38
-39
-41
-37
-35
-34
-36
-40
-43
-43
-44
-48
-49
-49
-45
-43
-42
-45
-50
-56
-58
-58
-55
-59
-62
-65
-65
-65
-65
-67
-67
-73
-72
-70
-65
-65
-69
-70
-69
-69
-68
-68
-68
-68
-67
-68
-67
-68
-74
-87
-98
-100
-94
-80
-66
-38
16
84
160
225
290
338
368
373
341
263
157
52
-27
-71
-88
-92
-84
-70
-50
-45
-49
-55
-60
-64
-64
-62
-64
-68
-72
-77
-76
-75
-72
-72
-78
-78
-78
-75
-74
-74
-75
-78
-79
-77
-75
-74
-75
-79
-76
-75
-72
-73
-72
-73
-74
-73
-70
-69
-72
-71
-69
-67
-64
-63
-64
-64
-62
-59
-57
-56
-56
-55
-52
-46
-43
-39
-39
-37
-34
-32
-25
-21
-20
-17
-13
-8
-3
-1
0
3
6
11
17
18
20
21
24
26
27
30
31
29
34
33
35
33
31
27
26
25
22
20
18
11
9
3
1
-4
-9
-15
-18
-19
-22
-25
-30
-32
-34
-35
-34
-37
-38
-43
-42
-41
-40
-42
-42
-45
-44
-46
-43
-42
-44
-46
-46
-42
-40
-40
-40
-43
-42
-39
-36
-37
-36
-40
-40
-36
-34
-34
-36
-39
-37
-36
-34
-33
-36
-38
-36
-34
-32
-34
-37
-39
-38
-33
-33
-32
-36
-42
-43
-39
-38
-37
-41
-42
-41
-40
-42
-41
-43
-48
-47
-43
-44
-45
-46
-48
-49
-47
-47
-48
-49
-51
-53
-49
-50
-49
-51
-55
-56
-52
-51
-51
-52
-55
-56
-53
-52
-52
-53
-57
-55
-53
-53
-52
-54
-58
-56
-51
-45
-44
-45
-42
-39
-39
-37
-35
-39
-39
-36
-34
-30
-32
-33
-32
-30
-28
-29
-30
-35
-37
-40
-39
-41
-40
-38
-39
-40
-40
-41
-44
-49
-54
-54
-55
-54
-55
-58
-61
-62
-61
-62
-64
-65
-68
-68
-67
-65
-64
-64
-67
-65
-64
-62
-62
-63
-66
-66
-64
-65
-66
-72
-87
-94
-95
-87
-79
-65
-47
-2
61
134
209
274
331
366
375
350
278
170
64
-19
-68
-85
-88
-83
-68
-49
-43
-45
-50
-57
-59
-59
-55
-55
-59
-66
-71
-71
-69
-70
-69
-73
-74
-75
-73
-72
-69
-71
-73
-73
-75
-69
-71
-72
-73
-73
-72
-69
-70
-69
-72
-71
-68
-67
-66
-68
-68
-66
-62
-61
-61
-60
-61
-59
-57
-53
-52
-51
-50
-48
-47
-42
-40
-39
-35
-32
-28
-22
-20
-19
-16
-12
-6
0
1
5
5
9
14
19
21
23
23
26
30
33
37
37
37
39
42
43
43
41
37
36
36
35
30
26
21
18
14
13
6
3
-5
-10
-11
-16
-20
-25
-30
-33
-33
-33
-37
-38
-38
-40
-39
-38
-41
-42
-43
-46
-44
-42
-40
-46
-46
-44
-43
-40
-41
-41
-43
-42
-39
-39
-38
-40
-39
-40
-38
-35
-35
-36
-38
-33
-32
-36
-32
-35
-39
-35
-37
-35
-32
-34
-35
-34
-34
-33
-36
-35
-38
-38
-35
-35
-35
-37
-39
-39
-38
-38
-39
-42
-44
-44
-42
-41
-42
-44
-46
-46
-46
-43
-45
-45
-50
-48
-48
-46
-45
-47
-51
-50
-49
-48
-47
-50
-54
-53
-52
-50
-50
-49
-53
-52
-51
-49
-50
-52
-54
-55
-53
-51
-49
-52
-57
-56
-53
-51
-52
-52
-54
-52
-49
-47
-43
-42
-41
-38
-37
-36
-35
-36
-38
-37
-32
-27
-29
-31
-33
-33
-28
-25
-27
-33
-34
-36
-37
-40
-41
-39
-42
-39
-35
-37
-41
-42
-48
-50
-50
-50
-52
-54
-57
-60
-58
-59
-62
-65
-66
-64
-63
-62
-62
-64
-66
-64
-63
-63
-62
-63
-65
-67
-63
-63
-64
-63
-67
-67
-69
-76
-89
-101
-101
-92
-77
-56
-26
28
94
168
237
301
353
384
385
357
287
179
67
-22
-71
-87
-86
-78
-64
-51
-44
-44
-48
-51
-53
-56
-58
-61
-57
-61
-64
-67
-70
-72
-73
-73
-71
-74
-76
-76
-73
-73
-72
-72
-75
-76
-74
-71
-71
-73
-76
-74
-74
-71
-69
-70
-75
-70
-69
-68
-68
-67
-70
-68
-65
-62
-65
-63
-66
-63
-58
-56
-56
-56
-56
-57
-51
-46
-46
-44
-42
-39
-37
-34
-31
-29
-26
-22
-17
-13
-9
-7
-6
0
5
11
13
15
14
17
25
30
32
33
35
37
39
42
44
43
41
45
45
47
46
41
40
37
35
36
30
26
20
15
11
10
6
-1
-8
-11
-12
-14
-19
-24
-30
-33
-33
-34
-34
-36
-43
-42
-40
-38
-43
-46
-48
-46
-44
-43
-42
-46
-48
-44
-45
-44
-45
-45
-47
-45
-41
-38
-40
-41
-45
-43
-41
-37
-37
-40
-42
-40
-38
-35
-37
-37
-39
-40
-40
-36
-36
-40
-40
-38
-38
-32
-36
-37
-40
-39
-39
-37
-37
-41
-42
-40
-40
-39
-39
-41
-44
-45
-45
-42
-45
-49
-51
-49
-48
-46
-46
-49
-52
-51
-51
-49
-52
-54
-54
-55
-54
-54
-54
-54
-58
-56
-55
-55
-56
-60
-61
-59
-57
-56
-57
-59
-60
-59
-58
-55
-56
-57
-59
-58
-57
-52
-53
-54
-55
-49
-45
-41
-41
-43
-46
-42
-40
-37
-36
-36
-38
-37
-35
-31
-31
-33
-35
-37
-39
-41
-42
-46
-49
-48
-45
-40
-40
-45
-51
-54
-55
-57
-57
-60
-64
-65
-64
-63
-67
-67
-70
-71
-70
-68
-69
-72
-77
-73
-71
-69
-71
-71
-73
-72
-71
-69
-69
-69
-71
-73
-72
-78
-89
-103
-110
-105
-92
-78
-54
-14
44
120
193
261
321
363
377
364
312
219
106
4
-62
-92
-91
-83
-70
-58
-49
-48
-54
-57
-61
-63
-67
-67
-68
-68
-72
-76
-81
-78
-80
-77
-76
-77
-79
-79
-78
-78
-79
-78
-83
-81
-81
-78
-78
-80
-80
-81
-81
-80
-78
-78
-80
-80
-76
-76
-78
-77
-77
-74
-73
-69
-70
-69
-70
-67
-67
-64
-65
-61
-63
-62
-57
-56
-54
-50
-49
-46
-41
-36
-35
-36
-32
-29
-24
-18
-14
-13
-10
-3
1
4
7
9
9
13
17
22
23
24
23
27
30
31
29
30
30
31
32
32
30
25
24
17
16
12
5
0
-5
-9
-11
-14
-22
-24
-30
-34
-38
-39
-42
-42
-43
-44
-46
-47
-45
-47
-51
-49
-50
-48
-53
-53
-56
-54
-51
-49
-48
-50
-52
-52
-49
-48
-46
-49
-49
-48
-46
-45
-45
-44
-45
-44
-43
-42
-44
-45
-46
-46
-45
-45
-44
-46
-47
-44
-43
-42
-42
-44
-46
-46
-45
-43
-44
-46
-49
-48
-49
-46
-47
-49
-51
-51
-47
-46
-49
-52
-54
-54
-53
-54
-52
-54
-58
-55
-54
-57
-58
-58
-59
-59
-58
-61
-60
-61
-61
-61
-61
-60
-62
-63
-64
-64
-63
-65
-62
-63
-65
-65
-64
-62
-63
-64
-67
-66
-63
-62
-59
-61
-60
-59
-57
-53
-50
-50
-49
-49
-48
-46
-44
-43
-43
-41
-42
-39
-40
-42
-43
-43
-42
-41
-43
-49
-53
-54
-47
-45
-45
-50
-53
-54
-54
-56
-58
-62
-65
-66
-66
-65
-67
-72
-76
-75
-72
-69
-68
-73
-73
-72
-72
-69
-70
-72
-72
-72
-73
-72
-72
-73
-74
-75
-75
-73
-76
-90
-102
-101
-94
-80
-67
-41
2
66
134
195
253
304
335
346
329
265
172
74
-8
-65
-91
-101
-95
-80
-59
-50
-53
-62
-62
-65
-67
-67
-66
-68
-71
-73
-75
-75
-75
-74
-77
-80
-80
-77
-76
-76
-76
-80
-83
-79
-76
-77
-76
-77
-81
-82
-80
-78
-77
-77
-76
-75
-72
-71
-72
-73
-73
-74
-71
-68
-68
-70
-69
-67
-63
-59
-59
-57
-59
-57
-53
-50
-44
-41
-42
-40
-35
-28
-29
-28
-25
-22
-20
-15
-8
-7
-4
-2
3
4
8
10
6
12
17
21
19
22
23
27
25
27
28
24
21
23
22
20
17
14
9
5
3
1
-3
-10
-13
-17
-18
-22
-26
-28
-34
-35
-37
-37
-38
-39
-44
-46
-44
-45
-43
-46
-48
-47
-46
-44
-46
-47
-47
-49
-46
-44
-45
-45
-47
-46
-45
-44
-43
-44
-46
-44
-41
-42
-41
-40
-44
-42
-43
-39
-39
-41
-42
-42
-39
-38
-37
-39
-40
-39
-38
-36
-38
-39
-41
-40
-38
-35
-37
-41
-42
-42
-37
-37
-36
-39
-41
-40
-40
-39
-37
-40
-43
-45
-43
-42
-42
-49
-49
-47
-43
-43
-45
-45
-48
-49
-49
-47
-49
-50
-52
-52
-50
-50
-50
-53
-54
-54
-52
-49
-51
-52
-55
-53
-52
-54
-49
-54
-56
-55
-54
-53
-52
-52
-55
-50
-45
-40
-37
-37
-41
-40
-36
-34
-34
-34
-34
-32
-30
-31
-29
-30
-33
-32
-34
-33
-36
-41
-42
-45
-41
-38
-36
-38
-43
-42
-46
-46
-47
-53
-59
-57
-56
-58
-60
-63
-61
-64
-66
-67
-67
-69
-68
-71
-68
-67
-66
-67
-69
-69
-67
-67
-68
-68
-68
-70
-66
-66
-71
-79
-92
-99
-98
-88
-77
-60
-30
24
87
152
216
277
326
357
368
351
294
203
96
4
-60
-91
-103
-102
-86
-63
-47
-45
-51
-59
-63
-62
-61
-60
-61
-66
-72
-75
-73
-75
-74
-76
-77
-76
-74
-74
-73
-76
-78
-77
-74
-74
-75
-79
-79
-79
-76
-72
-74
-76
-77
-75
-73
-71
-70
-73
-74
-72
-68
-66
-67
-68
-68
-67
-63
-61
-61
-63
-63
-58
-55
-50
-50
-48
-46
-45
-39
-36
-34
-32
-28
-23
-18
-12
-11
-9
-6
0
3
7
11
10
13
17
21
26
27
27
29
31
35
38
38
36
34
35
34
32
30
25
22
20
15
14
6
0
-5
-9
-12
-17
-21
-25
-31
-34
-34
-37
-40
-42
-43
-44
-44
-44
-44
-47
-49
-48
-48
-48
-48
-50
-52
-49
-48
-47
-47
-49
-49
-48
-46
-45
-44
-44
-46
-46
-43
-41
-42
-43
-43
-45
-43
-42
-42
-42
-44
-42
-39
-40
-40
-40
-42
-41
-39
-39
-39
-40
-40
-44
-41
-40
-40
-41
-46
-44
-41
-42
-42
-45
-46
-47
-48
-45
-45
-48
-49
-51
-51
-49
-48
-50
-55
-51
-51
-49
-52
-53
-57
-55
-53
-52
-51
-54
-56
-56
-53
-53
-52
-56
-59
-56
-54
-52
-54
-57
-57
-56
-52
-49
-49
-47
-46
-45
-42
-39
-41
-41
-40
-36
-35
-32
-35
-34
-35
-33
-32
-33
-35
-39
-41
-43
-44
-42
-41
-41
-41
-41
-44
-44
-49
-52
-57
-57
-60
-60
-61
-63
-66
-67
-66
-66
-67
-69
-69
-69
-68
-66
-68
-68
-69
-67
-68
-66
-63
-70
-70
-70
-70
-75
-88
-102
-107
-98
-83
-63
-25
34
108
188
259
322
367
384
360
291
180
65
-30
-82
-96
-94
-84
-64
-49
-45
-49
-56
-59
-58
-61
-59
-65
-69
-68
-73
-74
-74
-76
-75
-74
-73
-74
-77
-79
-80
-76
-76
-77
-76
-79
-78
-75
-77
-75
-75
-77
-74
-73
-71
-71
-73
-74
-71
-69
-68
-66
-67
-69
-66
-64
-62
-60
-61
-60
-56
-53
-49
-48
-45
-44
-40
-37
-29
-25
-24
-23
-17
-10
-6
-1
2
0
6
14
16
19
20
22
25
27
33
34
34
35
37
40
42
41
40
37
38
37
35
33
26
19
16
14
9
4
-2
-11
-14
-17
-19
-25
-30
-33
-35
-37
-37
-39
-43
-45
-44
-46
-45
-44
-47
-51
-48
-47
-46
-47
-47
-48
-48
-49
-42
-45
-45
-46
-46
-44
-41
-40
-43
-43
-45
-43
-40
-41
-40
-43
-40
-37
-36
-36
-39
-40
-39
-40
-38
-40
-42
-44
-43
-41
-40
-42
-42
-45
-46
-44
-42
-45
-46
-46
-47
-48
-49
-48
-49
-52
-51
-50
-50
-53
-56
-56
-56
-55
-55
-57
-57
-58
-57
-58
-57
-56
-56
-59
-59
-59
-57
-61
-61
-60
-58
-57
-53
-54
-51
-50
-46
-43
-42
-41
-42
-43
-41
-37
-33
-32
-36
-36
-35
-32
-31
-35
-38
-44
-44
-46
-48
-45
-45
-46
-45
-45
-48
-49
-52
-57
-58
-59
-59
-63
-63
-66
-70
-69
-70
-69
-73
-74
-73
-75
-71
-71
-70
-73
-72
-70
-70
-71
-72
-73
-72
-71
-73
-82
-96
-110
-113
-107
-91
-72
-43
16
97
184
264
331
377
388
372
307
196
73
-23
-81
-98
-95
-84
-66
-52
-50
-55
-62
-65
-64
-69
-70
-71
-72
-74
-79
-79
-83
-83
-82
-80
-80
-81
-83
-83
-82
-80
-81
-82
-85
-85
-82
-80
-81
-82
-83
-78
-77
-76
-77
-77
-79
-76
-76
-75
-75
-74
-72
-69
-66
-64
-63
-61
-61
-58
-56
-51
-48
-47
-45
-40
-36
-29
-25
-26
-22
-15
-12
-7
-5
-1
1
4
11
15
17
18
19
21
23
28
31
31
30
29
31
33
32
29
25
22
20
17
11
9
-1
-4
-8
-10
-16
-22
-30
-32
-36
-34
-39
-41
-47
-47
-45
-44
-45
-49
-51
-51
-51
-47
-51
-49
-53
-49
-49
-48
-48
-51
-50
-51
-49
-47
-48
-46
-49
-48
-47
-45
-45
-46
-48
-47
-44
-41
-41
-45
-46
-45
-42
-41
-41
-42
-43
-42
-42
-41
-42
-43
-48
-45
-47
-45
-46
-47
-48
-49
-48
-47
-47
-49
-50
-51
-50
-49
-48
-50
-54
-52
-53
-52
-55
-53
-56
-56
-54
-53
-54
-56
-58
-59
-57
-56
-59
-60
-63
-63
-60
-58
-60
-59
-62
-59
-59
-57
-57
-60
-63
-61
-59
-56
-58
-58
-59
-57
-51
-45
-44
-43
-47
-46
-45
-44
-42
-41
-41
-38
-38
-41
-38
-38
-38
-40
-39
-38
-42
-47
-52
-54
-50
-46
-45
-44
-48
-50
-53
-55
-58
-59
-62
-61
-62
-61
-65
-67
-71
-72
-71
-70
-70
-71
-73
-72
-69
-67
-70
-70
-74
-69
-68
-68
-67
-70
-72
-71
-70
-74
-83
-99
-106
-101
-89
-73
-47
-2
66
144
222
291
335
359
350
298
206
103
10
-57
-93
-98
-90
-69
-52
-47
-55
-61
-64
-63
-63
-66
-71
-72
-73
-74
-75
-77
-79
-80
-77
-78
-77
-81
-82
-80
-77
-75
-75
-80
-80
-80
-76
-76
-78
-78
-80
-77
-76
-75
-74
-77
-79
-72
-71
-69
-68
-73
-74
-70
-67
-65
-64
-61
-60
-57
-55
-51
-49
-47
-47
-44
-35
-32
-32
-27
-26
-21
-16
-9
-6
-7
-4
0
3
7
10
11
11
15
18
23
23
26
23
23
23
26
25
25
18
16
17
15
12
7
0
-3
-5
-8
-13
-19
-25
-32
-30
-31
-32
-34
-39
-43
-42
-41
-44
-44
-48
-50
-49
-47
-48
-52
-51
-49
-46
-45
-47
-51
-49
-50
-50
-47
-46
-46
-47
-48
-45
-44
-44
-45
-48
-44
-44
-42
-43
-43
-47
-45
-43
-42
-40
-40
-44
-42
-40
-39
-39
-41
-44
-43
-43
-40
-38
-43
-46
-46
-42
-41
-41
-43
-46
-48
-44
-43
-45
-47
-49
-50
-47
-50
-48
-49
-54
-55
-50
-52
-51
-55
-58
-54
-54
-55
-53
-55
-59
-59
-58
-57
-55
-58
-59
-60
-60
-60
-58
-59
-60
-59
-58
-58
-60
-60
-62
-61
-57
-57
-55
-51
-51
-48
-44
-42
-42
-43
-47
-41
-39
-37
-36
-37
-41
-37
-38
-34
-34
-36
-40
-42
-43
-44
-45
-48
-50
-46
-42
-39
-44
-48
-54
-55
-56
-57
-59
-63
-65
-63
-65
-64
-68
-70
-72
-73
-72
-68
-69
-72
-74
-72
-71
-69
-70
-72
-71
-72
-71
-71
-69
-71
-77
-80
-86
-97
-102
-102
-93
-74
-45
5
77
153
223
288
341
366
367
326
233
115
9
-61
-94
-102
-95
-76
-55
-44
-50
-59
-65
-66
-64
-67
-67
-72
-75
-78
-79
-75
-78
-79
-81
-83
-82
-78
-80
-81
-84
-82
-78
-78
-79
-80
-81
-81
-80
-78
-79
-81
-80
-79
-77
-76
-77
-77
-79
-76
-75
-72
-72
-71
-70
-68
-65
-63
-64
-62
-63
-59
-54
-52
-50
-52
-49
-46
-40
-37
-34
-35
-31
-25
-19
-16
-13
-11
-9
-5
1
5
6
7
9
12
16
19
19
22
20
24
28
30
32
31
30
27
28
29
26
23
21
16
17
15
10
2
-5
-6
-11
-9
-14
-19
-28
-29
-31
-34
-34
-41
-46
-44
-44
-43
-46
-48
-52
-53
-50
-48
-50
-52
-54
-52
-51
-50
-50
-51
-52
-53
-51
-49
-48
-50
-52
-51
-49
-48
-49
-50
-50
-49
-48
-45
-46
-47
-48
-48
-47
-45
-44
-45
-48
-46
-45
-43
-44
-45
-47
-46
-44
-43
-46
-46
-48
-47
-45
-46
-44
-48
-49
-48
-46
-46
-48
-49
-50
-50
-49
-50
-49
-51
-51
-52
-52
-51
-53
-56
-57
-57
-56
-57
-58
-59
-61
-60
-59
-58
-59
-59
-63
-61
-59
-61
-62
-63
-65
-63
-61
-60
-61
-60
-64
-60
-56
-53
-51
-50
-52
-48
-46
-43
-45
-46
-46
-43
-40
-40
-41
-42
-41
-40
-38
-38
-39
-42
-47
-49
-49
-49
-49
-51
-51
-48
-48
-54
-54
-57
-63
-65
-66
-63
-66
-69
-73
-72
-73
-71
-73
-76
-76
-75
-74
-71
-72
-75
-76
-78
-76
-75
-76
-77
-78
-77
-76
-77
-79
-91
-106
-113
-115
-106
-93
-77
-45
17
100
184
259
326
368
385
365
305
200
80
-19
-83
-105
-103
-99
-89
-68
-57
-52
-56
-63
-69
-72
-71
-70
-71
-76
-79
-85
-81
-85
-82
-83
-84
-87
-88
-86
-85
-85
-85
-89
-88
-86
-86
-85
-86
-88
-86
-86
-84
-85
-87
-87
-85
-82
-82
-81
-82
-83
-80
-77
-74
-74
-73
-75
-73
-69
-67
-64
-64
-65
-61
-57
-54
-49
-50
-48
-43
-38
-34
-29
-29
-25
-19
-14
-8
-4
-5
-2
2
3
10
12
13
16
19
22
25
26
27
25
30
31
31
29
26
26
24
20
19
17
13
8
4
1
-3
-7
-15
-20
-24
-27
-28
-31
-37
-42
-43
-43
-44
-47
-48
-53
-53
-52
-51
-53
-53
-57
-56
-55
-54
-55
-56
-58
-58
-55
-51
-52
-53
-54
-54
-51
-49
-48
-48
-50
-51
-50
-49
-47
-49
-49
-47
-48
-44
-47
-47
-48
-47
-43
-45
-46
-44
-46
-45
-44
-42
-44
-44
-45
-42
-43
-42
-44
-46
-48
-48
-47
-48
-49
-51
-54
-53
-49
-49
-50
-51
-55
-53
-52
-53
-54
-53
-57
-58
-58
-58
-57
-60
-60
-60
-59
-59
-60
-61
-64
-60
-61
-60
-60
-63
-63
-64
-64
-61
-59
-62
-65
-63
-64
-62
-62
-60
-58
-55
-50
-48
-49
-50
-50
-47
-43
-42
-40
-41
-43
-42
-42
-40
-39
-40
-43
-43
-42
-44
-48
-53
-55
-52
-49
-47
-46
-49
-52
-54
-55
-55
-59
-62
-68
-65
-65
-67
-69
-68
-74
-73
-71
-70
-73
-74
-74
-73
-72
-68
-71
-74
-75
-75
-73
-71
-71
-73
-78
-84
-95
-103
-107
-98
-89
-72
-38
20
92
166
235
303
350
370
363
314
221
108
6
-59
-90
-98
-94
-77
-54
-45
-45
-54
-61
-66
-63
-60
-65
-69
-73
-73
-73
-74
-74
-77
-78
-77
-75
-74
-74
-76
-79
-78
-75
-75
-75
-78
-77
-76
-76
-74
-75
-74
-78
-76
-72
-70
-72
-71
-74
-70
-70
-68
-68
-69
-68
-64
-62
-60
-59
-60
-60
-55
-51
-49
-46
-45
-44
-41
-37
-30
-29
-29
-26
-21
-15
-11
-9
-6
-5
-1
5
13
12
15
16
17
21
25
29
28
29
32
34
37
36
35
34
34
33
35
29
27
18
20
17
14
9
4
-3
-8
-9
-15
-20
-23
-28
-27
-29
-32
-36
-38
-41
-38
-37
-37
-37
-40
-43
-40
-39
-41
-41
-42
-42
-41
-39
-40
-41
-42
-41
-39
-37
-37
-38
-36
-38
-36
-35
-33
-35
-35
-37
-35
-34
-31
-32
-36
-35
-33
-31
-32
-34
-35
-37
-35
-33
-34
-33
-36
-36
-36
-37
-38
-36
-38
-39
-38
-38
-37
-37
-41
-43
-42
-40
-41
-42
-43
-47
-41
-45
-45
-47
-48
-46
-46
-48
-49
-50
-49
-51
-47
-46
-49
-50
-49
-51
-51
-52
-49
-52
-52
-53
-52
-51
-50
-51
-51
-49
-49
-46
-44
-43
-41
-40
-37
-36
-35
-36
-35
-35
-33
-31
-29
-32
-32
-31
-28
-24
-26
-28
-31
-36
-35
-36
-38
-41
-38
-37
-33
-32
-35
-42
-45
-48
-48
-48
-46
-50
-53
-57
-56
-56
-57
-59
-59
-63
-62
-61
-61
-60
-62
-62
-60
-59
-57
-59
-62
-64
-62
-62
-60
-63
-64
-72
-81
-87
-88
-83
-73
-58
-28
22
86
157
218
277
329
362
364
334
265
166
69
-6
-55
-82
-88
-78
-54
-39
-38
-43
-50
-56
-56
-55
-55
-59
-62
-67
-66
-65
-64
-66
-65
-69
-67
-69
-67
-69
-71
-72
-72
-70
-69
-70
-71
-75
-72
-71
-70
-71
-69
-71
-71
-67
-66
-67
-70
-70
-67
-64
-62
-63
-62
-64
-61
-57
-55
-54
-57
-58
-55
-49
-47
-44
-46
-42
-38
-34
-30
-27
-27
-25
-19
-14
-11
-8
-7
-3
0
5
10
12
12
14
18
22
24
25
27
29
30
36
36
35
37
33
34
33
30
29
27
19
18
17
14
6
4
-3
-3
-8
-9
-16
-20
-25
-27
-28
-30
-34
-37
-39
-39
-39
-41
-39
-42
-44
-42
-41
-40
-44
-45
-47
-45
-41
-40
-40
-40
-42
-42
-41
-39
-39
-41
-42
-40
-37
-36
-35
-36
-40
-36
-35
-34
-34
-35
-36
-34
-32
-32
-33
-33
-35
-34
-32
-32
-32
-35
-35
-37
-36
-35
-33
-36
-39
-36
-37
-35
-37
-37
-42
-42
-37
-37
-38
-42
-42
-41
-42
-40
-42
-47
-48
-48
-47
-46
-48
-48
-51
-52
-48
-49
-50
-53
-54
-54
-51
-49
-50
-53
-54
-52
-52
-51
-52
-56
-56
-54
-51
-51
-48
-47
-46
-45
-40
-39
-39
-41
-42
-39
-37
-33
-32
-35
-37
-35
-32
-30
-31
-34
-40
-39
-40
-42
-41
-44
-44
-41
-39
-41
-43
-48
-55
-54
-57
-61
-61
-64
-64
-64
-65
-66
-68
-73
-71
-71
-69
-68
-68
-71
-74
-72
-69
-70
-71
-73
-73
-73
-71
-71
-75
-85
-100
-110
-109
-102
-89
-75
-42
24
106
191
269
333
377
396
382
324
220
96
-14
-80
-105
-102
-84
-64
-49
-48
-53
-59
-62
-66
-67
-68
-70
-72
-78
-80
-82
-82
-80
-82
-82
-86
-86
-84
-84
-86
-84
-85
-86
-86
-85
-85
-85
-84
-88
-86
-85
-80
-81
-80
-83
-80
-79
-76
-77
-76
-78
-75
-71
-70
-69
-68
-68
-64
-60
-56
-56
-53
-55
-48
-43
-40
-35
-33
-32
-26
-19
-15
-10
-8
-5
0
5
10
11
14
14
20
24
31
28
29
28
30
31
31
29
30
29
26
25
21
13
8
3
0
-5
-11
-17
-22
-29
-31
-35
-37
-39
-43
-49
-48
-47
-50
-53
-53
-57
-57
-56
-54
-55
-57
-57
-57
-56
-54
-55
-55
-57
-55
-50
-52
-53
-53
-56
-56
-52
-51
-50
-51
-52
-49
-49
-48
-48
-48
-54
-50
-46
-46
-46
-48
-49
-49
-47
-47
-49
-52
-52
-54
-50
-50
-51
-52
-54
-53
-53
-51
-52
-55
-56
-56
-53
-52
-54
-58
-60
-58
-56
-58
-56
-59
-60
-61
-61
-59
-60
-63
-65
-62
-63
-61
-63
-67
-69
-69
-67
-64
-65
-66
-70
-67
-67
-66
-67
-69
-70
-70
-66
-64
-64
-62
-64
-59
-53
-50
-51
-53
-52
-50
-48
-48
-47
-46
-47
-45
-43
-40
-41
-44
-49
-52
-51
-52
-55
-57
-56
-51
-50
-51
-55
-59
-66
-65
-66
-67
-72
-75
-77
-76
-77
-77
-81
-83
-85
-82
-80
-80
-84
-84
-87
-83
-80
-80
-81
-83
-86
-83
-83
-85
-93
-107
-120
-125
-118
-106
-86
-56
4
86
171
248
317
371
392
383
330
221
93
-24
-94
-112
-108
-93
-74
-58
-60
-67
-70
-73
-75
-78
-84
-85
-87
-89
-92
-93
-96
-93
-93
-94
-93
-95
-97
-93
-92
-92
-94
-97
-97
-94
-93
-92
-92
-91
-93
-90
-88
-87
-89
-90
-89
-87
-83
-82
-82
-85
-83
-78
-75
-74
-72
-68
-67
-62
-57
-55
-51
-51
-47
-43
-39
-33
-30
-26
-21
-16
-11
-5
-3
1
2
4
11
16
18
20
21
24
27
27
25
25
25
23
25
21
18
13
7
3
0
-4
-8
-16
-24
-28
-31
-38
-39
-49
-53
-54
-54
-54
-58
-59
-63
-61
-61
-60
-68
-66
-69
-66
-64
-63
-63
-66
-65
-64
-64
-64
-67
-64
-63
-61
-60
-58
-60
-60
-60
-58
-58
-56
-56
-58
-58
-58
-57
-59
-55
-55
-58
-55
-56
-56
-55
-57
-57
-57
-57
-55
-56
-56
-58
-59
-58
-54
-57
-57
-59
-59
-57
-61
-61
-62
-64
-64
-65
-62
-63
-65
-67
-68
-66
-67
-66
-68
-70
-71
-67
-68
-71
-72
-74
-72
-70
-71
-75
-77
-74
-72
-71
-71
-71
-72
-76
-74
-71
-71
-70
-73
-71
-68
-65
-62
-59
-58
-62
-57
-53
-53
-55
-53
-56
-53
-52
-53
-50
-49
-50
-48
-48
-54
-57
-62
-65
-65
-60
-58
-57
-57
-64
-65
-67
-70
-74
-77
-78
-79
-79
-80
-82
-87
-88
-87
-86
-86
-84
-86
-88
-87
-88
-85
-86
-87
-88
-87
-84
-85
-86
-88
-97
-107
-120
-125
-117
-104
-84
-45
22
102
183
255
317
359
372
345
268
154
34
-53
-98
-111
-109
-96
-75
-61
-61
-69
-77
-80
-81
-79
-80
-84
-88
-92
-94
-93
-91
-92
-91
-93
-95
-92
-92
-89
-92
-94
-95
-92
-94
-94
-93
-94
-93
-90
-90
-91
-93
-90
-89
-87
-86
-88
-86
-85
-85
-82
-77
-77
-76
-76
-75
-70
-71
-67
-67
-66
-63
-55
-51
-49
-45
-42
-42
-39
-32
-26
-24
-22
-20
-14
-8
-6
-2
0
1
5
10
11
13
14
14
17
21
24
24
21
19
19
15
14
12
9
3
1
1
-7
-10
-19
-22
-25
-28
-30
-34
-40
-43
-48
-46
-47
-50
-53
-58
-57
-56
-56
-57
-58
-58
-59
-61
-60
-60
-61
-61
-61
-61
-61
-61
-61
-63
-60
-59
-55
-55
-58
-58
-59
-56
-54
-54
-56
-55
-53
-51
-52
-53
-56
-55
-54
-51
-50
-51
-52
-53
-50
-51
-48
-51
-52
-54
-53
-50
-52
-51
-52
-52
-51
-51
-51
-54
-56
-58
-58
-56
-55
-54
-57
-56
-59
-58
-57
-58
-62
-62
-59
-60
-60
-61
-65
-67
-67
-64
-62
-65
-67
-68
-66
-67
-67
-69
-71
-70
-69
-69
-67
-67
-69
-69
-68
-66
-67
-66
-67
-64
-62
-57
-54
-54
-57
-56
-54
-52
-52
-48
-50
-51
-53
-48
-45
-46
-47
-52
-53
-53
-55
-57
-57
-58
-56
-53
-53
-56
-62
-66
-66
-67
-68
-72
-74
-77
-77
-76
-78
-80
-82
-82
-81
-80
-79
-81
-83
-85
-82
-79
-81
-79
-81
-82
-82
-82
-83
-94
-109
-116
-111
-98
-79
-47
5
75
154
224
285
330
353
344
293
204
95
-3
-70
-105
-111
-103
-87
-66
-58
-62
-67
-70
-72
-74
-76
-80
-80
-81
-83
-86
-88
-90
-90
-87
-86
-89
-87
-89
-91
-88
-86
-88
-90
-92
-92
-91
-90
-88
-90
-91
-90
-87
-85
-86
-85
-86
-86
-84
-82
-80
-81
-82
-79
-78
-75
-75
-74
-75
-72
-67
-65
-64
-63
-62
-57
-55
-49
-48
-46
-42
-39
-32
-28
-26
-25
-21
-16
-11
-8
-4
-3
-2
0
6
10
14
10
11
17
21
23
23
24
23
24
28
26
24
19
15
14
12
11
6
2
-2
-7
-11
-16
-21
-27
-31
-33
-36
-38
-41
-46
-48
-46
-47
-50
-51
-56
-56
-56
-58
-57
-57
-58
-59
-61
-60
-57
-57
-59
-62
-59
-55
-56
-55
-55
-56
-56
-55
-52
-54
-56
-56
-51
-51
-49
-52
-51
-53
-52
-48
-49
-49
-49
-50
-48
-47
-44
-46
-48
-49
-49
-46
-46
-47
-47
-50
-51
-47
-47
-49
-51
-51
-51
-49
-50
-49
-52
-53
-54
-52
-52
-53
-55
-56
-57
-54
-59
-56
-58
-58
-57
-58
-57
-61
-62
-64
-64
-62
-63
-63
-64
-65
-64
-64
-66
-64
-66
-66
-66
-64
-63
-64
-66
-67
-67
-67
-63
-68
-68
-66
-62
-61
-58
-55
-53
-53
-53
-51
-50
-48
-49
-47
-45
-44
-43
-45
-46
-43
-40
-44
-44
-46
-50
-56
-55
-54
-53
-53
-50
-52
-52
-54
-57
-61
-68
-69
-69
-68
-70
-73
-77
-77
-75
-78
-79
-79
-79
-82
-82
-78
-77
-80
-80
-81
-80
-78
-78
-77
-80
-81
-78
-80
-81
-88
-99
-110
-119
-117
-108
-94
-76
-38
27
105
181
252
315
362
387
386
343
260
144
33
-49
-89
-101
-100
-90
-75
-58
-52
-55
-67
-73
-72
-72
-73
-74
-78
-85
-87
-85
-84
-87
-88
-90
-94
-91
-88
-90
-90
-94
-93
-92
-90
-91
-90
-92
-94
-90
-88
-86
-89
-91
-92
-88
-84
-84
-86
-87
-88
-85
-83
-83
-81
-82
-82
-78
-78
-73
-74
-73
-74
-72
-68
-66
-63
-62
-62
-57
-51
-51
-47
-43
-41
-37
-32
-27
-24
-20
-20
-14
-7
-7
-3
0
2
6
12
15
18
18
19
24
28
29
31
32
31
34
35
38
35
32
30
31
31
30
23
17
17
12
11
7
-3
-8
-12
-16
-18
-22
-28
-34
-39
-41
-41
-41
-45
-49
-53
-51
-52
-51
-52
-52
-56
-56
-53
-57
-55
-57
-58
-57
-56
-54
-56
-57
-58
-56
-57
-53
-55
-54
-56
-53
-51
-50
-51
-50
-51
-50
-50
-48
-49
-49
-50
-47
-49
-46
-46
-47
-48
-48
-44
-44
-45
-46
-46
-47
-48
-44
-46
-46
-47
-46
-45
-45
-47
-48
-50
-49
-46
-48
-49
-53
-50
-50
-50
-50
-51
-54
-56
-52
-53
-53
-55
-56
-58
-57
-56
-56
-59
-61
-59
-60
-58
-58
-62
-62
-64
-62
-61
-60
-60
-62
-64
-61
-60
-60
-62
-64
-63
-63
-59
-59
-59
-58
-56
-51
-46
-44
-46
-47
-47
-44
-42
-41
-39
-40
-41
-41
-38
-37
-38
-40
-42
-43
-46
-48
-50
-52
-50
-47
-45
-46
-51
-55
-58
-60
-61
-62
-66
-69
-71
-73
-71
-73
-76
-79
-80
-76
-74
-77
-76
-79
-80
-78
-77
-74
-77
-76
-77
-77
-76
-76
-78
-83
-93
-104
-111
-112
-104
-94
-76
-40
19
93
172
251
321
369
390
377
316
212
90
-6
-64
-90
-96
-93
-77
-63
-51
-54
-61
-66
-70
-73
-71
-72
-77
-81
-86
-84
-85
-86
-89
-89
-90
-88
-87
-88
-89
-89
-89
-89
-88
-88
-88
-90
-91
-87
-86
-85
-86
-86
-87
-86
-83
-82
-84
-83
-84
-81
-80
-79
-78
-77
-78
-75
-72
-70
-70
-67
-68
-64
-61
-61
-58
-55
-53
-48
-45
-41
-37
-35
-33
-26
-23
-16
-16
-12
-9
-5
1
5
4
8
11
14
16
22
22
23
25
29
31
31
28
29
29
29
29
26
19
15
12
8
8
5
-1
-8
-14
-16
-20
-24
-30
-34
-38
-39
-39
-42
-44
-49
-53
-54
-53
-55
-56
-61
-61
-59
-57
-59
-59
-59
-60
-62
-59
-58
-59
-60
-62
-60
-59
-56
-59
-57
-59
-57
-55
-57
-59
-60
-59
-55
-55
-52
-53
-57
-58
-54
-53
-55
-54
-55
-55
-53
-54
-52
-55
-54
-56
-52
-54
-52
-55
-58
-60
-58
-54
-56
-60
-61
-62
-60
-56
-57
-59
-60
-63
-61
-60
-60
-62
-63
-67
-66
-64
-65
-66
-68
-68
-70
-68
-68
-68
-70
-72
-70
-69
-70
-69
-71
-73
-72
-69
-69
-72
-72
-73
-72
-72
-71
-69
-70
-71
-69
-63
-58
-58
-57
-57
-56
-53
-55
-54
-56
-52
-51
-49
-49
-47
-46
-47
-46
-47
-48
-55
-56
-61
-62
-57
-54
-54
-54
-58
-59
-63
-65
-70
-71
-73
-73
-72
-74
-78
-80
-85
-82
-82
-81
-81
-83
-85
-83
-81
-81
-83
-84
-82
-80
-79
-80
-82
-83
-87
-93
-101
-113
-116
-114
-101
-80
-48
8
82
159
231
299
345
366
353
290
187
75
-15
-75
-102
-109
-105
-88
-68
-58
-59
-66
-75
-76
-75
-74
-80
-83
-88
-86
-86
-85
-86
-90
-92
-90
-90
-90
-89
-89
-93
-91
-89
-86
-88
-91
-94
-92
-90
-90
-90
-90
-91
-87
-83
-84
-83
-85
-87
-85
-82
-83
-82
-81
-82
-78
-76
-73
-73
-74
-75
-71
-65
-61
-60
-59
-58
-52
-48
-45
-43
-42
-40
-33
-25
-21
-19
-19
-18
-11
-5
-4
0
2
3
10
11
14
14
13
12
17
23
24
23
21
18
19
17
18
13
7
2
0
-5
-9
-12
-19
-23
-25
-27
-32
-36
-41
-45
-47
-44
-47
-47
-52
-55
-56
-53
-54
-57
-59
-58
-56
-56
-55
-58
-56
-59
-57
-52
-54
-55
-58
-58
-55
-52
-51
-50
-53
-51
-51
-46
-50
-50
-50
-51
-47
-47
-46
-46
-48
-50
-48
-49
-47
-48
-49
-50
-47
-45
-48
-50
-51
-51
-49
-47
-49
-49
-52
-51
-50
-52
-51
-54
-55
-55
-55
-53
-55
-57
-59
-60
-59
-58
-59
-57
-60
-62
-61
-60
-59
-63
-65
-66
-64
-63
-63
-63
-65
-67
-66
-66
-64
-64
-67
-68
-66
-65
-66
-64
-69
-69
-68
-62
-63
-62
-64
-62
-56
-53
-51
-50
-52
-52
-51
-48
-48
-46
-44
-45
-46
-43
-41
-40
-44
-44
-46
-48
-49
-52
-56
-60
-55
-51
-51
-48
-52
-58
-61
-60
-62
-64
-68
-71
-70
-69
-71
-74
-77
-79
-78
-75
-78
-78
-81
-81
-78
-77
-76
-78
-78
-78
-77
-74
-76
-77
-80
-83
-85
-90
-103
-113
-107
-94
-76
-45
6
79
151
221
288
337
366
367
334
259
156
53
-35
-91
-113
-109
-91
-68
-55
-58
-66
-71
-72
-72
-71
-75
-80
-84
-81
-80
-83
-83
-87
-87
-85
-84
-84
-86
-87
-87
-86
-85
-86
-85
-88
-89
-87
-84
-84
-86
-85
-86
-85
-82
-82
-81
-83
-83
-80
-78
-77
-78
-77
-80
-75
-74
-71
-70
-69
-70
-64
-61
-60
-55
-55
-54
-49
-46
-41
-39
-38
-34
-31
-25
-19
-16
-14
-13
-8
-3
1
4
2
7
13
16
19
20
18
19
22
26
26
26
26
25
25
25
25
19
15
13
10
8
3
-4
-8
-13
-13
-18
-23
-31
-34
-37
-40
-41
-44
-45
-50
-53
-52
-52
-51
-55
-56
-60
-57
-55
-56
-56
-57
-60
-58
-58
-56
-58
-58
-55
-58
-53
-53
-55
-56
-56
-53
-53
-52
-52
-51
-52
-50
-49
-47
-51
-50
-50
-48
-46
-45
-49
-50
-49
-49
-46
-44
-45
-48
-51
-47
-48
-46
-49
-50
-52
-50
-48
-48
-51
-50
-53
-51
-51
-50
-56
-55
-57
-57
-55
-54
-58
-60
-60
-59
-56
-58
-59
-62
-64
-61
-61
-61
-62
-63
-65
-63
-64
-62
-65
-65
-67
-66
-64
-64
-64
-67
-67
-65
-62
-60
-60
-59
-57
-53
-49
-46
-50
-49
-47
-45
-41
-41
-44
-43
-44
-39
-37
-39
-42
-47
-48
-51
-51
-50
-49
-51
-49
-51
-50
-52
-57
-61
-64
-66
-65
-68
-70
-72
-76
-75
-75
-76
-76
-79
-81
-78
-74
-73
-75
-77
-78
-77
-76
-75
-75
-78
-78
-78
-83
-97
-115
-120
-114
-97
-74
-32
35
119
208
291
358
392
393
355
268
142
20
-65
-101
-107
-97
-76
-54
-50
-54
-67
-70
-70
-68
-71
-75
-78
-81
-84
-80
-82
-84
-85
-87
-87
-86
-84
-84
-88
-90
-87
-87
-85
-87
-85
-87
-88
-82
-81
-81
-84
-85
-85
-79
-82
-80
-80
-79
-77
-73
-71
-69
-72
-70
-69
-64
-63
-63
-61
-59
-54
-50
-47
-46
-43
-42
-34
-28
-24
-21
-18
-14
-9
-5
0
0
5
7
13
16
22
23
22
24
28
32
34
33
35
35
35
35
31
31
26
24
21
18
15
10
3
-1
-6
-8
-14
-20
-26
-31
-32
-36
-39
-38
-44
-47
-46
-47
-48
-54
-53
-52
-54
-54
-54
-55
-57
-56
-54
-53
-54
-54
-54
-55
-54
-51
-52
-53
-53
-53
-51
-49
-47
-48
-50
-49
-48
-45
-45
-46
-46
-47
-43
-42
-42
-42
-44
-48
-45
-41
-41
-42
-46
-47
-43
-42
-42
-45
-45
-47
-45
-43
-45
-46
-46
-46
-48
-46
-46
-47
-52
-53
-50
-49
-51
-51
-54
-55
-54
-53
-55
-54
-56
-56
-56
-56
-57
-54
-56
-60
-57
-57
-57
-60
-61
-62
-62
-59
-60
-61
-60
-64
-59
-59
-59
-59
-61
-62
-59
-57
-53
-52
-50
-50
-47
-44
-44
-45
-46
-43
-37
-35
-36
-36
-39
-36
-35
-33
-36
-39
-45
-48
-49
-48
-46
-46
-47
-52
-53
-50
-54
-59
-60
-65
-65
-67
-67
-69
-73
-74
-74
-71
-71
-72
-74
-76
-75
-73
-72
-74
-75
-78
-75
-73
-71
-75
-79
-90
-103
-111
-112
-101
-84
-54
3
84
174
255
330
382
409
397
340
236
108
-7
-79
-104
-98
-89
-70
-53
-45
-51
-58
-63
-65
-66
-68
-68
-72
-76
-79
-80
-79
-78
-81
-80
-80
-82
-80
-78
-80
-82
-84
-84
-80
-80
-80
-82
-82
-82
-81
-79
-77
-78
-76
-77
-76
-73
-72
-74
-73
-73
-71
-68
-67
-67
-63
-65
-62
-58
-58
-57
-55
-51
-50
-44
-40
-37
-35
-36
-28
-24
-18
-15
-15
-9
-2
0
4
6
7
11
14
20
21
25
24
28
31
34
35
37
34
35
36
37
40
37
32
30
28
28
24
17
13
8
4
0
-4
-10
-14
-19
-21
-26
-27
-30
-34
-39
-38
-40
-42
-42
-44
-47
-46
-44
-45
-46
-51
-48
-48
-47
-46
-45
-46
-49
-46
-46
-46
-44
-45
-45
-41
-43
-41
-43
-43
-47
-46
-42
-38
-36
-42
-41
-42
-37
-38
-41
-39
-39
-39
-37
-36
-36
-39
-39
-40
-35
-35
-38
-41
-45
-42
-42
-40
-43
-45
-46
-44
-43
-44
-43
-47
-47
-46
-46
-46
-48
-50
-53
-51
-49
-49
-51
-51
-52
-52
-51
-55
-57
-56
-59
-56
-57
-56
-55
-56
-57
-58
-55
-56
-58
-57
-58
-55
-54
-56
-58
-58
-58
-58
-54
-56
-56
-57
-56
-54
-51
-46
-46
-45
-43
-41
-37
-38
-38
-38
-38
-35
-31
-34
-35
-35
-35
-32
-31
-35
-35
-39
-43
-43
-42
-42
-42
-40
-40
-43
-43
-46
-51
-53
-55
-56
-58
-57
-58
-60
-63
-64
-64
-64
-64
-65
-67
-64
-64
-64
-66
-68
-70
-66
-63
-63
-64
-65
-69
-65
-64
-62
-67
-75
-89
-96
-96
-88
-78
-63
-36
19
87
158
226
290
342
370
371
334
255
150
51
-22
-66
-82
-86
-81
-66
-48
-36
-42
-50
-55
-56
-56
-52
-55
-55
-62
-64
-67
-65
-64
-68
-71
-73
-70
-67
-68
-70
-72
-71
-68
-69
-70
-70
-69
-69
-68
-66
-65
-67
-65
-68
-65
-63
-60
-62
-65
-63
-60
-60
-57
-59
-59
-60
-56
-56
-56
-52
-54
-51
-48
-44
-42
-41
-40
-38
-36
-32
-28
-26
-23
-21
-15
-10
-9
-4
-4
-2
2
7
11
11
13
16
20
27
30
31
34
33
35
38
39
42
39
40
43
43
42
39
39
36
34
32
30
24
22
15
14
10
6
2
-6
-7
-7
-9
-15
-17
-19
-25
-24
-26
-24
-28
-30
-30
-29
-30
-28
-30
-32
-32
-30
-30
-29
-30
-32
-31
-30
-26
-28
-26
-27
-28
-25
-27
-25
-25
-27
-26
-24
-22
-23
-23
-24
-23
-22
-18
-19
-20
-22
-22
-19
-18
-19
-19
-21
-22
-21
-20
-22
-21
-23
-25
-23
-20
-21
-22
-24
-26
-26
-25
-29
-29
-30
-29
-31
-27
-30
-31
-33
-35
-34
-31
-30
-33
-37
-37
-36
-34
-33
-34
-38
-39
-37
-36
-33
-36
-39
-41
-38
-35
-35
-39
-38
-39
-37
-36
-36
-37
-36
-39
-34
-32
-31
-30
-26
-26
-24
-19
-19
-21
-21
-21
-17
-14
-14
-15
-17
-15
-12
-11
-11
-14
-18
-20
-23
-21
-22
-22
-24
-21
-19
-19
-21
-23
-27
-33
-33
-32
-32
-36
-41
-43
-40
-40
-42
-45
-45
-48
-47
-44
-44
-47
-47
-47
-45
-46
-43
-44
-46
-47
-47
-46
-45
-45
-50
-50
-49
-49
-56
-69
-79
-83
-76
-64
-51
-28
10
71
142
209
272
333
378
396
399
368
290
186
82
1
-47
-65
-68
-61
-48
-30
-19
-20
-24
-31
-35
-38
-38
-39
-39
-43
-49
-51
-50
-50
-51
-53
-54
-57
-55
-54
-53
-57
-57
-58
-56
-53
-54
-55
-58
-56
-55
-53
-55
-56
-55
-55
-52
-49
-49
-50
-52
-54
-48
-46
-44
-46
-46
-47
-45
-40
-39
-39
-38
-39
-36
-31
-28
-28
-25
-25
-20
-15
-12
-10
-8
-7
-2
3
8
11
13
17
22
23
26
33
33
33
36
40
44
47
47
48
52
54
55
55
54
55
56
56
58
54
50
48
45
47
42
40
34
28
24
20
17
12
4
1
-3
-3
-10
-13
-15
-18
-18
-17
-17
-19
-22
-25
-23
-22
-22
-24
-24
-25
-25
-24
-24
-22
-27
-30
-25
-23
-22
-24
-23
-23
-22
-20
-23
-21
-23
-23
-22
-19
-18
-17
-16
-20
-19
-15
-17
-16
-17
-17
-15
-15
-15
-15
-16
-17
-15
-15
-14
-15
-16
-19
-18
-16
-17
-17
-18
-21
-20
-21
-21
-22
-23
-24
-24
-23
-23
-25
-26
-28
-28
-25
-25
-30
-29
-30
-29
-28
-29
-30
-33
-32
-33
-31
-32
-32
-35
-37
-35
-31
-32
-35
-36
-36
-35
-33
-33
-35
-35
-38
-37
-35
-35
-36
-38
-39
-38
-36
-36
-38
-38
-38
-37
-34
-36
-36
-38
-37
-35
-33
-34
-31
-31
-28
-23
-20
-22
-24
-24
-22
-19
-15
-17
-14
-16
-16
-15
-13
-12
-11
-15
-18
-19
-20
-23
-26
-28
-29
-23
-21
-19
-24
-29
-31
-32
-32
-35
-34
-41
-41
-42
-43
-43
-46
-47
-50
-50
-48
-50
-51
-52
-52
-52
-49
-50
-53
-53
-54
-55
-50
-51
-51
-54
-55
-51
-51
-52
-53
-55
-62
-71
-81
-91
-87
-81
-66
-45
-3
59
137
208
274
337
382
400
398
370
300
200
97
11
-47
-71
-77
-75
-64
-49
-33
-29
-36
-43
-43
-46
-48
-49
-52
-53
-54
-58
-60
-62
-62
-62
-64
-62
-63
-65
-65
-64
-65
-63
-64
-68
-67
-65
-64
-62
-63
-63
-64
-61
-58
-58
-60
-61
-61
-58
-55
-55
-57
-57
-57
-53
-51
-51
-54
-51
-51
-48
-46
-46
-44
-42
-42
-38
-35
-32
-30
-30
-27
-21
-16
-14
-10
-9
-5
-1
3
9
12
13
15
21
27
29
30
32
34
40
43
45
46
44
49
48
53
53
51
50
46
47
48
45
40
38
33
29
25
21
14
8
2
-1
-4
-9
-14
-22
-24
-23
-22
-25
-29
-32
-35
-33
-32
-35
-35
-36
-36
-33
-34
-35
-33
-35
-36
-35
-33
-34
-35
-34
-36
-36
-33
-32
-34
-34
-33
-30
-31
-31
-30
-31
-30
-29
-26
-29
-28
-31
-31
-28
-27
-28
-26
-27
-28
-27
-27
-26
-27
-29
-30
-29
-26
-27
-30
-31
-33
-30
-29
-33
-33
-33
-34
-33
-34
-36
-37
-37
-35
-34
-34
-36
-39
-41
-40
-39
-38
-40
-42
-43
-45
-42
-43
-43
-44
-49
-47
-44
-42
-44
-45
-47
-48
-46
-46
-44
-45
-48
-47
-45
-45
-45
-45
-47
-47
-47
-48
-45
-47
-46
-48
-45
-39
-39
-36
-35
-33
-33
-31
-30
-30
-33
-30
-25
-22
-26
-24
-25
-24
-22
-20
-24
-27
-33
-36
-38
-36
-35
-35
-36
-34
-32
-34
-37
-39
-42
-45
-46
-49
-49
-53
-54
-56
-55
-55
-57
-60
-61
-62
-59
-58
-59
-60
-61
-60
-58
-54
-57
-59
-62
-62
-59
-56
-59
-60
-65
-72
-82
-92
-94
-86
-75
-54
-21
36
107
179
246
309
357
381
379
338
251
145
43
-31
-69
-82
-85
-76
-55
-38
-38
-43
-51
-54
-52
-49
-52
-55
-60
-60
-61
-62
-62
-64
-68
-69
-70
-68
-68
-68
-70
-70
-68
-66
-66
-68
-69
-69
-66
-64
-66
-69
-68
-67
-64
-64
-65
-62
-66
-65
-61
-60
-61
-61
-62
-60
-57
-55
-55
-55
-54
-50
-48
-47
-41
-40
-39
-38
-33
-28
-26
-24
-22
-20
-16
-11
-6
-3
-2
2
6
14
16
16
17
19
26
30
30
33
34
35
39
42
45
43
39
38
37
37
34
32
26
21
19
18
11
6
1
-5
-12
-12
-18
-20
-23
-25
-29
-31
-31
-34
-37
-41
-37
-36
-35
-35
-36
-39
-38
-36
-37
-37
-39
-41
-38
-35
-36
-36
-39
-40
-38
-35
-35
-35
-36
-36
-34
-34
-32
-32
-34
-35
-32
-32
-31
-33
-32
-33
-31
-29
-32
-32
-35
-35
-35
-33
-32
-36
-36
-34
-35
-34
-33
-36
-39
-39
-37
-37
-38
-39
-40
-42
-42
-40
-41
-41
-43
-44
-46
-42
-44
-46
-49
-49
-48
-46
-44
-46
-49
-51
-49
-50
-49
-51
-51
-53
-52
-51
-52
-55
-53
-54
-51
-51
-52
-52
-54
-55
-53
-51
-51
-51
-52
-49
-46
-39
-37
-38
-38
-42
-37
-32
-31
-30
-29
-34
-34
-32
-32
-31
-31
-35
-35
-35
-38
-42
-42
-45
-39
-35
-35
-39
-44
-49
-50
-49
-52
-52
-58
-59
-60
-57
-61
-64
-66
-67
-67
-64
-64
-65
-66
-67
-67
-65
-66
-65
-67
-66
-64
-62
-63
-65
-65
-70
-74
-79
-93
-103
-101
-92
-75
-52
-13
49
124
204
277
339
378
391
372
305
203
91
-6
-66
-93
-92
-80
-61
-44
-39
-42
-51
-54
-53
-54
-56
-58
-64
-63
-66
-70
-71
-73
-73
-73
-72
-71
-73
-74
-76
-74
-71
-73
-72
-74
-76
-76
-72
-73
-73
-76
-74
-73
-70
-68
-65
-66
-69
-69
-68
-66
-65
-63
-61
-61
-57
-57
-55
-56
-54
-51
-47
-46
-42
-43
-40
-34
-30
-26
-22
-20
-17
-15
-8
-3
0
0
4
10
15
18
18
22
19
25
29
30
35
33
34
36
40
41
38
36
35
36
37
34
30
23
18
17
10
9
-1
-2
-9
-9
-13
-17
-22
-25
-29
-32
-30
-34
-38
-36
-41
-41
-40
-41
-42
-44
-46
-42
-39
-39
-41
-44
-46
-43
-43
-43
-41
-43
-44
-42
-39
-38
-41
-42
-41
-40
-37
-38
-36
-39
-38
-36
-33
-33
-35
-36
-38
-35
-32
-31
-34
-35
-38
-36
-35
-33
-35
-34
-39
-37
-39
-36
-38
-41
-40
-42
-37
-38
-40
-42
-43
-44
-43
-42
-44
-46
-47
-44
-44
-45
-48
-50
-52
-49
-50
-49
-53
-53
-56
-53
-53
-52
-55
-55
-56
-54
-52
-53
-55
-58
-59
-58
-55
-52
-57
-57
-58
-56
-54
-54
-55
-59
-58
-53
-53
-54
-53
-56
-54
-48
-43
-40
-41
-45
-41
-41
-39
-36
-37
-36
-39
-37
-36
-32
-32
-36
-36
-38
-38
-39
-43
-47
-49
-45
-39
-38
-43
-47
-51
-51
-51
-55
-56
-62
-63
-64
-60
-63
-67
-70
-71
-70
-67
-67
-71
-72
-74
-71
-71
-72
-71
-72
-73
-70
-67
-69
-69
-71
-73
-71
-72
-71
-79
-97
-107
-112
-104
-90
-75
-42
18
100
183
260
327
369
386
379
332
240
119
8
-65
-94
-95
-89
-76
-59
-49
-48
-55
-57
-58
-63
-66
-67
-69
-72
-74
-76
-78
-75
-74
-76
-80
-81
-85
-82
-79
-79
-81
-82
-82
-81
-79
-79
-79
-82
-82
-77
-74
-75
-75
-77
-76
-76
-73
-70
-71
-73
-71
-68
-64
-65
-65
-66
-62
-58
-53
-51
-51
-51
-48
-44
-39
-35
-29
-28
-24
-19
-17
-11
-7
-6
-1
3
9
10
15
16
17
23
26
29
31
31
32
35
40
38
36
34
32
32
33
29
23
18
11
7
6
1
-6
-10
-14
-20
-21
-23
-28
-34
-35
-35
-36
-37
-40
-44
-44
-46
-46
-45
-47
-48
-50
-46
-44
-46
-48
-47
-49
-45
-43
-45
-42
-48
-47
-46
-42
-40
-40
-40
-41
-39
-37
-39
-41
-40
-41
-37
-38
-37
-41
-41
-40
-39
-37
-38
-40
-41
-41
-39
-39
-39
-43
-43
-43
-42
-41
-41
-45
-45
-46
-45
-46
-46
-50
-48
-50
-47
-50
-48
-52
-54
-56
-53
-52
-53
-54
-55
-57
-58
-56
-57
-57
-59
-59
-56
-56
-56
-59
-61
-65
-60
-60
-60
-62
-61
-62
-62
-60
-64
-64
-66
-64
-63
-62
-60
-61
-62
-62
-61
-58
-57
-53
-50
-48
-47
-45
-47
-47
-48
-47
-45
-40
-39
-42
-41
-40
-38
-39
-41
-43
-49
-51
-51
-50
-51
-49
-49
-51
-51
-51
-56
-57
-62
-62
-67
-67
-67
-67
-70
-72
-73
-72
-72
-75
-77
-78
-75
-73
-75
-73
-75
-76
-76
-73
-72
-74
-73
-76
-74
-72
-75
-82
-97
-110
-112
-103
-89
-71
-34
29
104
180
249
314
360
377
366
309
198
70
-34
-91
-106
-103
-92
-69
-52
-50
-55
-62
-63
-68
-71
-72
-73
-75
-76
-78
-81
-84
-82
-81
-82
-84
-85
-85
-83
-83
-80
-84
-84
-85
-83
-80
-79
-80
-78
-82
-79
-80
-79
-78
-79
-78
-73
-73
-71
-73
-73
-71
-70
-65
-62
-63
-63
-61
-59
-57
-54
-49
-52
-47
-42
-37
-34
-31
-27
-23
-17
-12
-8
-6
-4
-2
2
7
14
15
18
19
22
22
24
23
27
27
30
31
33
31
26
24
20
20
18
12
5
-1
-1
-8
-11
-18
-24
-29
-31
-30
-34
-37
-40
-42
-43
-43
-43
-43
-46
-47
-47
-45
-45
-46
-47
-50
-46
-45
-43
-46
-48
-47
-45
-43
-42
-43
-45
-43
-43
-38
-39
-39
-40
-38
-38
-36
-37
-39
-41
-40
-37
-38
-36
-36
-38
-39
-39
-41
-40
-39
-42
-44
-41
-40
-39
-41
-42
-45
-46
-44
-45
-47
-49
-52
-50
-49
-49
-51
-53
-54
-52
-50
-51
-55
-57
-60
-58
-57
-56
-58
-59
-58
-56
-58
-59
-61
-63
-63
-61
-59
-58
-60
-62
-61
-62
-61
-61
-63
-64
-63
-62
-61
-59
-59
-62
-62
-59
-55
-52
-49
-48
-47
-47
-45
-45
-44
-45
-43
-39
-37
-37
-39
-40
-41
-38
-36
-35
-40
-44
-46
-48
-49
-49
-48
-49
-45
-47
-48
-50
-54
-57
-60
-62
-61
-62
-64
-68
-69
-69
-68
-69
-72
-71
-72
-71
-69
-69
-71
-72
-75
-71
-70
-70
-72
-71
-70
-70
-72
-71
-81
-93
-105
-104
-96
-81
-62
-31
27
108
187
261
325
364
369
335
254
138
28
-53
-94
-102
-92
-71
-50
-46
-53
-59
-61
-62
-64
-67
-69
-70
-71
-73
-76
-78
-82
-80
-76
-74
-76
-80
-78
-76
-76
-76
-78
-79
-78
-77
-74
-76
-78
-79
-79
-76
-75
-72
-71
-72
-75
-71
-69
-69
-67
-69
-69
-63
-63
-58
-59
-61
-59
-57
-52
-50
-49
-48
-46
-41
-38
-33
-31
-30
-27
-22
-16
-12
-10
-8
-6
0
3
5
7
9
12
16
21
25
24
24
24
29
33
34
34
33
34
35
33
32
28
25
23
21
19
15
11
5
-1
-5
-4
-9
-15
-19
-20
-25
-23
-27
-30
-37
-38
-38
-34
-37
-39
-40
-45
-43
-42
-43
-43
-45
-45
-44
-43
-43
-44
-45
-47
-44
-44
-41
-45
-44
-45
-42
-40
-38
-40
-42
-42
-41
-36
-37
-38
-38
-40
-38
-34
-34
-35
-37
-36
-34
-33
-33
-34
-35
-36
-35
-35
-36
-33
-38
-35
-35
-36
-36
-36
-40
-41
-38
-38
-40
-40
-43
-43
-42
-42
-43
-45
-49
-48
-46
-44
-45
-49
-47
-50
-48
-45
-50
-50
-50
-52
-51
-49
-51
-54
-53
-54
-53
-51
-53
-54
-57
-57
-57
-54
-56
-55
-57
-58
-55
-53
-55
-56
-59
-60
-58
-53
-53
-53
-53
-49
-44
-40
-40
-41
-42
-43
-40
-37
-33
-34
-34
-34
-35
-30
-30
-34
-37
-36
-38
-36
-41
-44
-44
-45
-43
-40
-39
-41
-46
-48
-50
-52
-53
-56
-62
-64
-61
-61
-62
-66
-69
-72
-71
-66
-68
-72
-73
-72
-69
-67
-69
-71
-71
-73
-67
-66
-68
-70
-71
-76
-85
-99
-108
-106
-94
-79
-48
6
81
161
235
306
361
392
392
359
278
162
46
-41
-87
-102
-94
-83
-59
-44
-44
-52
-60
-66
-62
-65
-65
-70
-73
-77
-75
-76
-78
-81
-83
-82
-83
-78
-79
-78
-82
-81
-79
-80
-80
-80
-82
-83
-80
-79
-79
-78
-77
-80
-78
-76
-75
-76
-74
-76
-73
-70
-71
-71
-71
-71
-69
-65
-64
-61
-60
-60
-56
-54
-52
-50
-46
-46
-39
-36
-32
-32
-30
-26
-20
-15
-11
-8
-5
-3
2
7
9
10
10
13
15
22
22
23
24
26
28
32
35
34
32
31
33
32
31
28
23
21
20
19
15
7
2
-3
-5
-10
-13
-20
-25
-27
-29
-30
-32
-35
-40
-43
-46
-42
-44
-46
-49
-49
-47
-47
-46
-50
-50
-50
-50
-47
-47
-48
-48
-50
-48
-48
-47
-47
-49
-49
-46
-44
-42
-43
-44
-46
-44
-42
-43
-43
-43
-44
-43
-39
-39
-40
-42
-44
-43
-42
-38
-39
-39
-42
-41
-41
-39
-42
-41
-44
-42
-41
-41
-41
-43
-43
-42
-42
-43
-44
-46
-46
-45
-45
-46
-46
-47
-50
-48
-48
-49
-49
-52
-52
-50
-49
-52
-55
-57
-56
-53
-53
-52
-57
-58
-60
-56
-57
-57
-60
-61
-61
-59
-59
-58
-58
-63
-62
-58
-60
-59
-60
-63
-64
-60
-60
-60
-66
-64
-62
-58
-59
-56
-55
-55
-53
-49
-48
-44
-47
-47
-46
-44
-41
-38
-40
-41
-42
-40
-36
-36
-38
-42
-45
-42
-45
-49
-52
-54
-50
-48
-45
-46
-52
-57
-59
-62
-61
-64
-66
-71
-71
-70
-68
-70
-73
-75
-76
-73
-73
-75
-74
-75
-76
-76
-75
-76
-76
-77
-76
-72
-73
-72
-76
-80
-86
-95
-105
-116
-112
-103
-87
-62
-17
47
120
192
261
325
366
379
359
292
185
69
-25
-80
-100
-102
-96
-83
-62
-50
-55
-64
-70
-72
-68
-68
-71
-75
-76
-77
-82
-80
-81
-82
-85
-83
-82
-86
-86
-88
-88
-87
-87
-86
-85
-85
-86
-87
-86
-84
-82
-86
-85
-83
-79
-80
-79
-81
-82
-79
-80
-78
-80
-78
-78
-76
-74
-72
-71
-70
-70
-66
-63
-62
-64
-60
-60
-57
-53
-50
-49
-48
-43
-40
-36
-32
-29
-29
-25
-21
-17
-13
-12
-9
-5
2
4
7
7
10
11
16
18
21
20
22
22
23
27
29
27
23
22
23
23
21
17
13
9
8
5
-1
-5
-12
-16
-17
-18
-25
-33
-36
-40
-38
-38
-41
-46
-49
-50
-49
-48
-48
-51
-54
-54
-56
-53
-53
-54
-55
-55
-51
-52
-52
-52
-54
-55
-53
-49
-50
-52
-53
-55
-50
-50
-48
-47
-49
-49
-48
-45
-46
-47
-48
-48
-47
-45
-45
-44
-49
-47
-48
-46
-44
-45
-46
-48
-47
-45
-43
-45
-48
-49
-47
-48
-48
-48
-50
-50
-48
-48
-49
-52
-51
-54
-53
-51
-51
-53
-56
-57
-56
-55
-57
-58
-60
-62
-61
-60
-59
-61
-62
-66
-61
-63
-63
-65
-66
-66
-63
-62
-63
-63
-64
-65
-66
-64
-64
-65
-67
-67
-66
-65
-68
-66
-70
-69
-67
-66
-66
-66
-68
-67
-64
-62
-61
-60
-56
-55
-50
-49
-48
-47
-50
-50
-46
-42
-42
-42
-43
-42
-41
-40
-41
-44
-47
-50
-51
-53
-54
-54
-53
-52
-52
-51
-55
-59
-62
-64
-64
-66
-67
-72
-72
-76
-75
-74
-76
-76
-78
-79
-78
-78
-78
-79
-77
-80
-78
-74
-76
-75
-79
-79
-77
-77
-77
-84
-95
-110
-113
-105
-93
-78
-52
-3
66
140
211
274
332
364
370
339
260
148
40
-40
-90
-102
-104
-94
-74
-58
-53
-58
-63
-69
-73
-72
-72
-74
-78
-79
-82
-83
-82
-83
-83
-84
-87
-88
-85
-82
-82
-88
-86
-88
-84
-86
-83
-85
-84
-87
-89
-82
-82
-84
-86
-87
-82
-81
-81
-81
-79
-76
-76
-75
-76
-75
-74
-76
-73
-67
-66
-65
-67
-63
-60
-58
-53
-50
-49
-48
-43
-37
-34
-33
-32
-30
-25
-20
-17
-16
-16
-9
-7
-2
2
3
3
7
12
17
18
17
16
15
19
22
24
23
20
17
14
16
13
10
5
1
-1
-3
-6
-12
-19
-23
-24
-26
-30
-34
-39
-45
-43
-46
-44
-49
-52
-53
-51
-50
-52
-50
-53
-57
-54
-53
-53
-53
-54
-55
-52
-51
-50
-50
-53
-57
-55
-51
-53
-51
-53
-53
-49
-51
-47
-51
-51
-52
-48
-46
-45
-46
-47
-49
-50
-46
-48
-47
-49
-49
-48
-47
-46
-49
-51
-51
-49
-47
-45
-47
-48
-51
-51
-50
-50
-53
-52
-55
-56
-53
-54
-55
-61
-62
-58
-57
-57
-58
-59
-64
-64
-60
-62
-63
-65
-65
-65
-63
-62
-64
-68
-69
-66
-63
-65
-67
-67
-68
-66
-66
-67
-66
-69
-70
-69
-66
-64
-67
-67
-66
-62
-56
-53
-53
-53
-52
-50
-49
-49
-49
-49
-46
-44
-46
-44
-40
-45
-46
-47
-51
-51
-53
-55
-57
-52
-51
-51
-53
-59
-60
-60
-63
-64
-69
-71
-74
-73
-74
-75
-75
-77
-80
-76
-78
-77
-80
-80
-81
-80
-78
-77
-78
-79
-81
-80
-78
-77
-80
-82
-83
-85
-95
-109
-118
-112
-101
-78
-44
17
95
173
250
316
362
371
339
255
131
15
-60
-100
-111
-104
-88
-66
-53
-55
-64
-73
-75
-74
-72
-76
-78
-82
-84
-85
-86
-86
-89
-91
-90
-87
-87
-88
-91
-93
-92
-92
-89
-88
-89
-90
-91
-90
-86
-86
-87
-88
-87
-87
-82
-82
-81
-81
-81
-82
-77
-75
-75
-75
-74
-71
-66
-64
-63
-63
-62
-56
-51
-50
-47
-49
-45
-37
-32
-27
-24
-22
-20
-16
-9
-6
-2
-2
2
6
11
11
12
14
13
18
21
22
19
19
18
18
18
17
12
7
3
1
0
-6
-13
-19
-24
-29
-30
-32
-39
-43
-46
-48
-51
-51
-53
-59
-62
-58
-57
-59
-61
-61
-64
-61
-60
-63
-63
-63
-65
-62
-59
-59
-61
-62
-61
-59
-59
-57
-58
-62
-61
-58
-56
-56
-59
-58
-56
-52
-52
-50
-54
-55
-57
-53
-51
-52
-53
-55
-55
-55
-52
-54
-56
-57
-58
-55
-55
-54
-55
-57
-60
-58
-57
-57
-58
-58
-61
-60
-59
-61
-65
-64
-65
-62
-62
-65
-65
-67
-68
-69
-69
-69
-68
-70
-70
-69
-70
-71
-71
-75
-72
-71
-69
-71
-71
-74
-76
-75
-73
-73
-74
-75
-75
-74
-72
-72
-73
-76
-74
-69
-63
-61
-59
-59
-61
-61
-58
-55
-56
-53
-54
-49
-50
-49
-52
-50
-52
-49
-49
-53
-55
-61
-63
-62
-59
-57
-58
-60
-61
-63
-64
-67
-73
-74
-77
-78
-76
-78
-81
-84
-85
-85
-82
-84
-85
-89
-88
-87
-83
-84
-83
-87
-87
-85
-84
-84
-84
-85
-84
-86
-87
-95
-107
-122
-126
-116
-99
-79
-47
14
94
178
256
324
369
380
359
297
197
83
-18
-84
-110
-112
-102
-88
-68
-59
-61
-66
-72
-73
-74
-78
-81
-80
-81
-85
-88
-91
-91
-92
-91
-91
-89
-92
-96
-93
-92
-91
-92
-96
-94
-93
-88
-90
-90
-92
-93
-90
-89
-89
-89
-89
-89
-84
-83
-82
-84
-85
-85
-81
-77
-76
-75
-76
-76
-73
-69
-68
-69
-67
-64
-60
-55
-52
-51
-49
-46
-41
-35
-31
-27
-27
-23
-17
-12
-9
-8
-8
-5
1
7
10
8
12
12
17
18
22
21
20
22
23
24
24
21
18
14
14
16
13
7
3
-4
-4
-9
-14
-21
-28
-34
-35
-34
-39
-43
-49
-51
-52
-53
-52
-55
-60
-61
-58
-57
-58
-63
-63
-65
-61
-58
-58
-61
-62
-61
-61
-58
-61
-59
-60
-61
-56
-57
-56
-57
-58
-57
-57
-55
-53
-53
-53
-58
-54
-54
-52
-54
-54
-54
-52
-50
-50
-53
-54
-54
-55
-53
-53
-53
-55
-55
-55
-53
-54
-56
-57
-59
-59
-56
-57
-59
-61
-62
-61
-60
-61
-63
-67
-69
-66
-63
-63
-67
-70
-72
-71
-68
-65
-66
-70
-71
-71
-69
-70
-74
-74
-73
-71
-70
-71
-72
-74
-74
-73
-72
-71
-73
-75
-74
-73
-72
-74
-74
-75
-75
-75
-70
-75
-73
-71
-70
-65
-59
-57
-57
-63
-61
-58
-56
-55
-53
-55
-55
-53
-52
-50
-50
-52
-53
-56
-56
-58
-62
-64
-64
-58
-55
-58
-62
-67
-69
-68
-70
-70
-74
-78
-82
-83
-81
-83
-86
-87
-88
-86
-84
-83
-84
-85
-88
-84
-82
-83
-84
-87
-85
-85
-84
-85
-86
-99
-115
-124
-121
-110
-92
-64
-7
74
155
236
304
349
369
354
288
172
44
-55
-101
-111
-106
-95
-79
-62
-60
-67
-71
-76
-80
-78
-80
-82
-86
-86
-91
-91
-88
-88
-87
-90
-92
-97
-95
-92
-91
-93
-92
-92
-93
-92
-90
-90
-90
-90
-89
-90
-88
-88
-87
-92
-92
-87
-83
-84
-83
-84
-84
-81
-78
-80
-78
-80
-75
-72
-69
-68
-67
-65
-65
-59
-56
-52
-53
-50
-50
-42
-38
-34
-34
-30
-28
-22
-18
-13
-13
-11
-9
-2
0
0
2
5
5
11
13
13
14
17
15
17
20
20
16
13
10
11
13
9
6
-2
-4
-8
-9
-15
-21
-25
-31
-32
-35
-37
-41
-45
-45
-46
-45
-50
-53
-56
-58
-57
-54
-56
-55
-57
-57
-57
-55
-56
-58
-58
-59
-56
-53
-54
-58
-56
-56
-53
-50
-51
-53
-53
-53
-53
-52
-52
-52
-51
-54
-51
-49
-49
-47
-52
-52
-51
-50
-50
-48
-51
-49
-49
-50
-50
-54
-54
-53
-53
-50
-53
-53
-55
-59
-56
-54
-56
-60
-59
-62
-59
-59
-61
-61
-62
-63
-62
-62
-64
-66
-69
-69
-70
-65
-66
-66
-69
-70
-68
-69
-69
-69
-72
-70
-71
-69
-70
-68
-71
-73
-73
-69
-69
-69
-69
-72
-71
-68
-70
-71
-69
-65
-61
-56
-55
-55
-55
-56
-52
-50
-48
-49
-49
-49
-50
-47
-46
-47
-47
-48
-48
-50
-56
-58
-60
-60
-56
-53
-51
-57
-61
-65
-66
-65
-68
-72
-72
-74
-74
-75
-78
-79
-81
-81
-80
-77
-77
-79
-81
-83
-80
-78
-79
-79
-81
-83
-80
-79
-79
-83
-94
-107
-113
-107
-96
-78
-46
11
90
170
240
303
346
363
345
285
182
72
-19
-76
-103
-101
-91
-70
-56
-51
-59
-65
-71
-72
-73
-73
-74
-76
-79
-82
-84
-87
-85
-85
-84
-84
-86
-89
-86
-84
-86
-88
-89
-86
-86
-83
-84
-86
-89
-87
-85
-82
-82
-83
-83
-82
-80
-78
-78
-78
-81
-83
-77
-75
-75
-72
-73
-74
-70
-64
-65
-65
-65
-64
-58
-55
-53
-50
-51
-49
-44
-39
-37
-34
-32
-28
-23
-17
-14
-12
-11
-11
-3
1
5
3
6
5
10
13
16
17
19
18
20
24
23
24
21
18
20
19
19
13
10
6
4
2
-3
-9
-17
-19
-21
-23
-27
-32
-37
-41
-41
-41
-43
-46
-48
-49
-48
-48
-48
-49
-53
-54
-52
-47
-49
-51
-51
-53
-51
-47
-49
-49
-50
-50
-50
-46
-47
-48
-49
-49
-46
-43
-43
-43
-43
-45
-45
-41
-44
-42
-43
-42
-42
-41
-41
-42
-43
-43
-44
-45
-44
-43
-47
-45
-46
-45
-44
-47
-48
-47
-51
-48
-47
-49
-53
-53
-53
-52
-54
-53
-57
-57
-56
-56
-58
-60
-61
-62
-59
-57
-59
-63
-62
-64
-63
-62
-61
-64
-64
-68
-64
-65
-65
-66
-66
-66
-66
-62
-65
-67
-67
-66
-65
-61
-62
-60
-63
-59
-54
-51
-48
-51
-48
-51
-48
-46
-43
-43
-41
-41
-43
-41
-39
-38
-40
-41
-42
-42
-45
-48
-53
-54
-52
-48
-46
-47
-51
-54
-58
-58
-62
-61
-66
-67
-67
-67
-65
-68
-73
-77
-75
-76
-73
-76
-78
-77
-75
-74
-74
-76
-79
-78
-77
-77
-75
-76
-75
-78
-76
-80
-87
-102
-114
-121
-113
-100
-85
-65
-30
32
111
186
253
315
362
382
381
351
276
167
58
-28
-79
-96
-98
-93
-78
-61
-48
-48
-55
-62
-68
-71
-70
-66
-69
-72
-76
-81
-80
-81
-81
-83
-85
-85
-84
-84
-83
-84
-87
-88
-87
-83
-86
-86
-87
-88
-87
-86
-86
-88
-89
-88
-84
-82
-80
-80
-81
-80
-77
-78
-74
-76
-76
-74
-74
-70
-69
-69
-69
-68
-66
-64
-61
-56
-58
-56
-51
-49
-46
-44
-45
-38
-34
-29
-25
-25
-22
-20
-13
-7
-6
-3
1
2
5
11
12
16
15
15
19
22
23
25
27
26
29
30
28
27
24
22
22
21
16
13
7
1
-3
-5
-10
-14
-20
-24
-27
-31
-34
-39
-42
-44
-44
-45
-48
-50
-51
-52
-52
-53
-53
-55
-54
-55
-54
-53
-52
-52
-55
-54
-53
-49
-49
-49
-52
-53
-49
-48
-50
-49
-48
-48
-47
-45
-42
-44
-45
-48
-45
-44
-41
-45
-46
-48
-46
-45
-43
-46
-45
-46
-45
-44
-44
-45
-46
-49
-48
-47
-46
-46
-50
-51
-49
-47
-48
-49
-52
-54
-52
-50
-51
-52
-54
-55
-57
-55
-55
-58
-57
-60
-57
-57
-58
-59
-62
-64
-62
-61
-62
-62
-64
-65
-63
-62
-63
-66
-66
-66
-65
-61
-63
-64
-68
-67
-66
-63
-64
-64
-64
-65
-62
-59
-61
-59
-57
-53
-49
-47
-46
-49
-48
-46
-47
-41
-40
-43
-43
-45
-43
-40
-37
-39
-44
-45
-49
-49
-52
-54
-55
-53
-48
-46
-48
-56
-57
-59
-60
-60
-60
-64
-68
-69
-69
-70
-72
-75
-77
-77
-73
-73
-74
-76
-78
-77
-76
-74
-75
-75
-76
-78
-77
-75
-75
-77
-77
-80
-79
-83
-90
-106
-117
-118
-106
-93
-78
-47
2
71
147
218
287
340
372
376
351
287
187
73
-21
-79
-100
-102
-96
-86
-68
-56
-56
-59
-65
-67
-70
-71
-72
-72
-73
-79
-83
-86
-83
-81
-79
-83
-86
-87
-89
-85
-86
-86
-89
-87
-88
-89
-85
-88
-88
-88
-88
-84
-84
-86
-87
-87
-84
-81
-81
-81
-84
-84
-82
-80
-78
-78
-79
-76
-72
-72
-72
-72
-69
-68
-65
-61
-60
-59
-58
-57
-52
-48
-45
-44
-42
-41
-34
-31
-29
-28
-25
-21
-13
-9
-5
-5
-3
-1
3
8
8
13
12
15
16
22
23
21
23
23
23
24
22
22
18
17
15
14
7
3
-3
-5
-10
-11
-18
-23
-30
-35
-37
-37
-42
-43
-46
-50
-47
-49
-50
-55
-57
-58
-57
-55
-55
-57
-57
-58
-55
-55
-58
-57
-57
-56
-54
-52
-53
-54
-57
-56
-53
-50
-50
-53
-56
-55
-52
-47
-50
-49
-50
-50
-47
-45
-45
-46
-49
-49
-50
-48
-49
-49
-49
-51
-48
-47
-45
-49
-49
-54
-52
-50
-49
-51
-55
-53
-54
-51
-53
-55
-58
-57
-56
-57
-55
-57
-58
-62
-60
-58
-59
-61
-63
-66
-64
-62
-62
-63
-66
-67
-67
-63
-63
-66
-67
-69
-70
-69
-70
-71
-71
-71
-70
-67
-70
-70
-71
-71
-71
-69
-70
-70
-70
-74
-73
-71
-69
-69
-70
-67
-63
-57
-56
-55
-57
-59
-54
-52
-50
-49
-50
-51
-50
-46
-47
-46
-48
-51
-52
-53
-53
-58
-61
-61
-60
-55
-55
-56
-61
-63
-63
-66
-65
-68
-70
-73
-74
-76
-76
-76
-81
-82
-80
-79
-81
-80
-83
-84
-82
-81
-82
-83
-85
-84
-83
-80
-80
-82
-84
-85
-84
-82
-84
-91
-100
-114
-118
-116
-107
-91
-73
-40
19
90
161
228
283
328
350
342
297
209
103
6
-60
-96
-110
-106
-98
-80
-62
-56
-61
-70
-74
-78
-77
-75
-77
-83
-88
-89
-87
-85
-85
-89
-91
-91
-91
-88
-89
-89
-92
-91
-87
-86
-87
-89
-91
-91
-89
-88
-86
-87
-90
-91
-89
-86
-84
-87
-85
-84
-82
-79
-81
-81
-82
-81
-77
-75
-72
-72
-73
-69
-67
-64
-61
-60
-59
-59
-51
-48
-46
-43
-41
-40
-31
-26
-23
-21
-20
-14
-9
-7
-5
-2
-1
-1
4
8
8
9
7
9
8
14
15
13
10
9
9
8
3
-3
-8
-11
-12
-15
-20
-24
-34
-38
-41
-38
-42
-45
-47
-52
-54
-53
-53
-56
-58
-58
-59
-57
-56
-57
-59
-61
-59
-56
-58
-57
-60
-63
-59
-58
-58
-58
-61
-60
-60
-54
-54
-56
-56
-55
-53
-51
-53
-54
-54
-57
-53
-51
-51
-51
-54
-57
-55
-52
-51
-54
-56
-58
-55
-53
-53
-54
-55
-57
-55
-54
-54
-60
-61
-61
-60
-59
-60
-62
-64
-66
-65
-62
-64
-66
-65
-66
-64
-65
-65
-66
-70
-69
-68
-66
-70
-68
-73
-74
-72
-70
-71
-74
-75
-71
-71
-70
-72
-72
-74
-74
-72
-72
-72
-72
-75
-74
-71
-68
-66
-64
-62
-60
-56
-57
-55
-56
-56
-57
-51
-48
-49
-52
-50
-52
-50
-48
-48
-52
-55
-58
-61
-61
-59
-59
-59
-57
-57
-61
-62
-67
-68
-72
-72
-71
-73
-76
-78
-80
-78
-77
-80
-82
-83
-82
-83
-82
-82
-82
-85
-86
-83
-82
-82
-81
-85
-84
-82
-81
-83
-91
-100
-112
-117
-108
-96
-78
-47
8
79
150
220
285
330
354
355
320
242
136
33
-47
-93
-108
-113
-99
-80
-64
-59
-61
-67
-74
-78
-78
-76
-78
-82
-86
-90
-90
-90
-90
-89
-89
-90
-91
-91
-87
-88
-88
-91
-90
-88
-89
-87
-88
-87
-89
-90
-85
-85
-85
-86
-86
-83
-81
-80
-79
-81
-83
-79
-75
-74
-77
-77
-77
-70
-66
-66
-65
-64
-62
-57
-51
-48
-47
-43
-42
-37
-31
-30
-26
-25
-21
-14
-9
-8
-6
-5
-1
3
9
11
11
11
12
15
17
20
19
18
14
14
14
14
8
6
2
-3
-7
-11
-17
-22
-29
-30
-33
-37
-42
-47
-49
-52
-52
-51
-54
-59
-59
-57
-57
-59
-59
-59
-62
-60
-58
-57
-58
-61
-62
-58
-57
-54
-56
-56
-57
-53
-50
-53
-52
-54
-55
-51
-50
-51
-54
-53
-51
-52
-49
-50
-51
-50
-51
-51
-49
-48
-51
-51
-53
-50
-48
-48
-50
-54
-56
-57
-56
-54
-57
-57
-59
-57
-56
-59
-61
-63
-62
-64
-61
-60
-61
-63
-68
-66
-65
-68
-66
-65
-68
-67
-68
-68
-67
-71
-73
-70
-69
-69
-68
-70
-72
-71
-68
-69
-69
-72
-73
-70
-67
-67
-68
-67
-65
-62
-54
-54
-56
-57
-57
-55
-52
-50
-50
-51
-52
-49
-47
-48
-48
-52
-53
-55
-55
-57
-61
-59
-58
-54
-55
-59
-63
-66
-67
-68
-68
-71
-74
-79
-80
-79
-79
-80
-82
-84
-84
-85
-82
-83
-85
-84
-83
-83
-82
-81
-84
-84
-85
-84
-84
-85
-94
-110
-123
-121
-111
-98
-77
-39
27
110
191
263
322
354
355
311
226
106
-6
-76
-109
-109
-101
-87
-67
-57
-59
-66
-70
-73
-75
-77
-81
-81
-85
-86
-86
-89
-92
-91
-90
-93
-93
-94
-98
-92
-91
-89
-90
-94
-94
-95
-93
-90
-91
-91
-92
-91
-90
-89
-90
-92
-90
-86
-85
-82
-82
-84
-85
-82
-80
-78
-74
-75
-76
-73
-69
-68
-67
-65
-63
-58
-52
-52
-48
-45
-45
-40
-34
-29
-26
-24
-23
-18
-11
-10
-8
-9
-8
-1
4
7
6
7
8
12
14
15
14
14
13
15
16
14
12
7
0
-3
0
-5
-11
-18
-22
-26
-27
-31
-39
-43
-48
-47
-48
-51
-54
-59
-61
-61
-60
-60
-62
-64
-65
-65
-62
-61
-64
-69
-67
-65
-61
-62
-64
-64
-65
-63
-63
-59
-60
-62
-60
-58
-56
-56
-58
-62
-62
-57
-56
-56
-54
-56
-56
-55
-53
-55
-54
-57
-55
-56
-54
-55
-58
-59
-58
-58
-56
-59
-57
-60
-62
-59
-60
-60
-62
-63
-63
-63
-60
-64
-64
-66
-67
-65
-65
-64
-65
-69
-70
-69
-67
-69
-71
-74
-73
-72
-70
-69
-72
-73
-75
-74
-75
-73
-75
-77
-77
-77
-75
-75
-78
-77
-79
-76
-76
-75
-76
-78
-78
-74
-73
-73
-75
-72
-70
-63
-61
-60
-58
-62
-58
-56
-57
-55
-53
-52
-54
-54
-52
-50
-52
-56
-58
-55
-55
-58
-63
-64
-66
-64
-59
-59
-60
-63
-65
-69
-67
-70
-75
-76
-80
-79
-77
-79
-80
-83
-85
-82
-85
-84
-87
-86
-88
-83
-83
-86
-83
-85
-88
-84
-84
-82
-85
-87
-88
-89
-92
-104
-119
-123
-117
-100
-79
-41
17
90
162
236
296
336
347
329
265
167
60
-30
-90
-110
-113
-99
-83
-66
-62
-66
-74
-77
-78
-79
-80
-82
-88
-90
-87
-90
-91
-93
-95
-94
-91
-91
-94
-95
-94
-95
-92
-94
-98
-95
-96
-92
-92
-92
-93
-94
-92
-94
-89
-90
-90
-89
-91
-89
-85
-84
-84
-85
-85
-80
-78
-79
-76
-77
-73
-70
-66
-62
-61
-59
-57
-57
-49
-46
-42
-41
-40
-33
-28
-23
-21
-19
-20
-17
-11
-6
-3
-1
2
4
9
10
9
9
11
14
15
12
11
10
6
4
6
5
0
-7
-13
-16
-17
-23
-29
-34
-38
-36
-38
-41
-44
-50
-53
-54
-55
-55
-58
-60
-59
-58
-58
-57
-59
-58
-58
-53
-56
-56
-57
-61
-61
-58
-56
-58
-55
-57
-58
-55
-55
-53
-54
-57
-55
-54
-49
-49
-51
-54
-57
-54
-53
-51
-52
-52
-51
-54
-54
-56
-54
-55
-55
-53
-51
-53
-56
-56
-58
-56
-53
-52
-55
-58
-60
-61
-61
-63
-61
-64
-64
-62
-59
-61
-61
-65
-66
-66
-64
-68
-67
-68
-69
-67
-67
-66
-68
-69
-70
-68
-70
-69
-69
-72
-74
-70
-71
-72
-70
-71
-72
-72
-68
-71
-72
-73
-74
-70
-67
-64
-63
-61
-60
-55
-55
-56
-56
-55
-57
-51
-44
-45
-46
-49
-51
-50
-47
-47
-50
-53
-55
-55
-54
-57
-56
-58
-58
-55
-52
-56
-58
-62
-62
-66
-66
-69
-72
-73
-75
-73
-74
-75
-77
-79
-78
-78
-75
-74
-76
-79
-80
-79
-78
-78
-77
-79
-80
-77
-75
-74
-75
-80
-85
-94
-104
-108
-101
-93
-78
-54
-10
50
114
178
240
295
330
347
332
280
192
92
9
-56
-90
-102
-99
-79
-57
-50
-56
-65
-69
-70
-70
-71
-71
-77
-81
-82
-82
-83
-86
-85
-87
-85
-84
-83
-85
-87
-87
-86
-85
-87
-86
-88
-86
-83
-83
-84
-87
-85
-88
-85
-82
-82
-82
-84
-82
-80
-79
-78
-77
-77
-77
-74
-68
-69
-69
-68
-67
-62
-57
-55
-55
-55
-56
-51
-45
-43
-39
-38
-36
-30
-24
-23
-19
-22
-17
-11
-4
-1
0
1
2
7
7
13
13
15
18
20
22
21
19
18
14
15
14
11
5
3
-4
-7
-11
-17
-20
-26
-29
-32
-33
-37
-41
-46
-46
-46
-46
-46
-48
-51
-51
-53
-51
-52
-53
-53
-57
-52
-51
-50
-50
-52
-51
-50
-48
-47
-49
-50
-50
-51
-45
-45
-45
-45
-48
-44
-43
-42
-43
-45
-47
-45
-42
-41
-43
-46
-44
-42
-44
-44
-44
-46
-46
-45
-42
-43
-42
-45
-50
-47
-47
-47
-46
-51
-50
-50
-47
-49
-52
-53
-54
-53
-52
-53
-54
-57
-58
-57
-54
-56
-56
-59
-60
-59
-59
-59
-60
-61
-65
-62
-59
-61
-61
-62
-64
-62
-61
-62
-65
-65
-65
-64
-60
-61
-63
-65
-64
-64
-61
-59
-57
-55
-55
-52
-47
-46
-48
-50
-50
-46
-41
-41
-42
-44
-44
-41
-40
-40
-42
-46
-47
-47
-47
-52
-53
-52
-53
-53
-49
-51
-53
-56
-59
-63
-62
-64
-67
-71
-72
-73
-72
-72
-74
-76
-78
-79
-77
-76
-77
-77
-79
-77
-75
-76
-78
-79
-78
-78
-80
-75
-79
-82
-85
-89
-100
-113
-117
-112
-101
-82
-48
5
76
150
226
297
352
374
368
323
232
117
9
-69
-106
-110
-103
-87
-66
-52
-50
-58
-66
-69
-69
-73
-74
-75
-79
-81
-82
-83
-86
-87
-88
-88
-87
-87
-86
-87
-90
-87
-89
-87
-88
-90
-89
-87
-87
-86
-85
-89
-88
-86
-84
-84
-82
-84
-86
-83
-79
-78
-80
-81
-79
-75
-72
-71
-72
-71
-70
-66
-64
-60
-60
-58
-55
-51
-47
-46
-43
-41
-41
-33
-26
-23
-22
-20
-15
-10
-7
-3
-4
-2
1
6
10
12
13
13
15
18
20
23
22
21
22
23
21
22
18
15
11
9
7
3
-2
-9
-12
-17
-18
-25
-31
-35
-36
-38
-41
-43
-47
-48
-53
-54
-51
-51
-55
-56
-59
-59
-56
-56
-58
-59
-59
-56
-53
-56
-55
-56
-56
-55
-52
-54
-53
-53
-53
-51
-50
-51
-50
-51
-52
-50
-48
-46
-48
-48
-50
-47
-45
-48
-48
-49
-50
-46
-45
-43
-46
-49
-51
-49
-45
-45
-48
-51
-51
-50
-48
-50
-52
-53
-53
-52
-49
-51
-55
-53
-56
-54
-53
-52
-55
-58
-59
-58
-56
-55
-58
-60
-63
-62
-59
-61
-62
-64
-65
-63
-61
-61
-63
-67
-67
-66
-63
-62
-61
-63
-65
-64
-64
-63
-65
-65
-70
-68
-63
-65
-64
-65
-66
-68
-64
-66
-61
-60
-57
-53
-50
-48
-50
-51
-53
-49
-44
-42
-41
-44
-45
-41
-38
-39
-38
-42
-43
-46
-44
-47
-52
-53
-54
-49
-47
-47
-48
-54
-55
-57
-59
-62
-63
-65
-70
-69
-67
-68
-71
-72
-76
-76
-74
-74
-76
-76
-76
-75
-72
-74
-76
-76
-77
-75
-74
-77
-77
-80
-78
-81
-89
-100
-112
-116
-107
-92
-71
-35
25
99
179
260
331
371
375
345
265
148
30
-54
-99
-105
-99
-82
-64
-50
-50
-60
-67
-68
-68
-69
-70
-74
-79
-80
-79
-80
-83
-86
-89
-84
-83
-85
-84
-88
-89
-87
-88
-86
-86
-86
-88
-85
-84
-83
-83
-85
-84
-80
-80
-78
-80
-80
-82
-80
-75
-76
-74
-74
-76
-72
-67
-67
-65
-67
-65
-59
-54
-53
-50
-49
-49
-44
-39
-37
-35
-31
-28
-20
-15
-10
-11
-12
-9
-3
2
5
7
8
8
12
15
18
18
19
20
25
25
24
22
20
17
18
17
16
11
5
1
-1
-2
-8
-13
-19
-24
-27
-30
-34
-40
-44
-45
-47
-46
-47
-49
-49
-53
-51
-52
-52
-54
-54
-56
-56
-56
-55
-55
-58
-60
-56
-54
-54
-55
-56
-59
-55
-54
-52
-53
-54
-53
-52
-53
-52
-52
-53
-53
-51
-47
-50
-51
-51
-53
-50
-49
-49
-50
-50
-52
-51
-48
-50
-51
-52
-53
-52
-52
-51
-52
-52
-55
-52
-54
-54
-55
-54
-56
-53
-53
-53
-57
-57
-60
-54
-57
-59
-58
-62
-61
-60
-60
-60
-62
-62
-66
-64
-62
-63
-63
-68
-72
-66
-64
-64
-68
-70
-71
-68
-68
-65
-65
-69
-70
-67
-68
-68
-69
-72
-74
-71
-68
-68
-70
-74
-71
-71
-67
-70
-69
-69
-68
-66
-61
-59
-57
-58
-57
-54
-53
-52
-53
-52
-51
-49
-47
-49
-50
-48
-48
-46
-45
-48
-52
-56
-60
-58
-59
-55
-54
-53
-54
-54
-56
-59
-63
-67
-67
-69
-68
-71
-72
-76
-79
-80
-77
-79
-79
-82
-83
-82
-80
-80
-81
-81
-83
-80
-78
-78
-80
-80
-81
-81
-77
-79
-84
-95
-107
-115
-112
-102
-89
-71
-34
23
90
155
220
280
326
353
349
299
206
92
-5
-67
-95
-104
-100
-90
-73
-57
-58
-61
-68
-70
-73
-73
-70
-75
-78
-81
-85
-83
-82
-81
-84
-85
-86
-85
-84
-84
-85
-87
-87
-83
-84
-85
-86
-86
-88
-86
-83
-84
-82
-84
-84
-82
-79
-79
-79
-81
-82
-80
-77
-76
-74
-75
-74
-72
-72
-69
-68
-66
-64
-62
-59
-57
-58
-55
-53
-51
-44
-41
-40
-41
-36
-32
-27
-24
-20
-21
-18
-11
-8
-7
-6
-5
-4
3
3
6
8
9
13
15
19
22
20
21
19
20
22
21
17
16
15
15
13
10
5
-2
-5
-5
-8
-10
-16
-21
-24
-27
-28
-33
-36
-39
-42
-43
-43
-45
-45
-48
-50
-49
-46
-48
-49
-51
-52
-51
-49
-51
-53
-52
-55
-49
-47
-48
-46
-46
-50
-48
-47
-46
-48
-47
-49
-45
-43
-42
-43
-44
-45
-45
-44
-42
-41
-45
-46
-43
-40
-42
-42
-44
-45
-43
-42
-40
-42
-43
-45
-42
-40
-42
-42
-42
-44
-45
-43
-45
-45
-48
-50
-52
-48
-49
-51
-52
-52
-51
-51
-54
-56
-56
-54
-56
-53
-53
-55
-57
-60
-60
-57
-58
-59
-58
-59
-59
-58
-61
-62
-62
-65
-62
-62
-61
-64
-63
-64
-63
-62
-62
-62
-63
-64
-63
-60
-61
-63
-63
-63
-59
-56
-51
-50
-47
-47
-47
-44
-46
-47
-42
-41
-39
-38
-42
-42
-39
-40
-41
-40
-44
-47
-53
-52
-50
-47
-46
-47
-49
-53
-53
-55
-57
-60
-64
-65
-67
-64
-67
-68
-71
-73
-73
-69
-71
-73
-76
-77
-73
-71
-71
-73
-74
-75
-71
-71
-70
-74
-75
-79
-83
-94
-104
-104
-98
-84
-58
-12
53
127
199
269
327
361
361
312
215
99
-2
-70
-100
-103
-91
-69
-50
-42
-49
-59
-64
-64
-65
-65
-66
-71
-76
-74
-74
-76
-74
-78
-79
-80
-77
-76
-76
-78
-79
-79
-78
-77
-79
-77
-78
-78
-77
-75
-78
-75
-75
-76
-75
-71
-71
-71
-70
-71
-69
-68
-67
-67
-65
-66
-61
-57
-58
-57
-56
-56
-52
-47
-44
-44
-40
-39
-35
-32
-33
-25
-24
-22
-15
-10
-4
-3
-3
0
3
7
11
14
15
16
18
22
22
26
25
25
27
30
28
27
24
22
21
20
17
15
8
4
-1
-4
-9
-13
-18
-24
-26
-28
-31
-34
-38
-41
-42
-45
-44
-47
-48
-51
-47
-49
-51
-51
-51
-51
-49
-49
-47
-47
-51
-52
-51
-49
-45
-48
-51
-51
-48
-45
-45
-46
-47
-47
-44
-43
-42
-42
-44
-44
-42
-42
-41
-42
-44
-42
-40
-39
-42
-42
-42
-45
-44
-41
-42
-43
-47
-48
-46
-46
-45
-48
-49
-50
-46
-48
-48
-52
-53
-54
-54
-52
-52
-53
-54
-56
-55
-54
-56
-57
-58
-61
-57
-56
-58
-59
-60
-62
-59
-57
-58
-57
-59
-62
-61
-60
-59
-60
-61
-61
-61
-58
-60
-60
-60
-60
-54
-52
-49
-47
-46
-48
-46
-45
-46
-47
-44
-43
-40
-41
-40
-38
-40
-39
-40
-41
-42
-47
-48
-53
-51
-47
-47
-49
-52
-56
-55
-55
-56
-60
-67
-68
-65
-66
-66
-71
-73
-72
-72
-70
-73
-73
-74
-75
-72
-69
-70
-72
-73
-76
-73
-71
-73
-73
-78
-89
-103
-110
-110
-101
-86
-58
-3
73
156
233
305
357
381
366
297
187
60
-35
-85
-99
-93
-78
-56
-45
-47
-53
-58
-60
-63
-66
-68
-70
-72
-74
-77
-77
-77
-79
-77
-78
-81
-80
-78
-77
-76
-78
-80
-85
-80
-77
-75
-77
-81
-78
-77
-74
-75
-74
-75
-75
-73
-69
-69
-70
-72
-69
-66
-63
-61
-61
-60
-60
-54
-52
-50
-47
-47
-42
-37
-33
-31
-29
-27
-23
-19
-14
-7
-5
-3
-1
3
7
11
14
15
17
20
23
26
26
27
27
30
32
32
30
25
21
22
19
18
12
6
1
-5
-6
-11
-18
-23
-29
-29
-30
-33
-39
-41
-44
-44
-42
-45
-46
-50
-50
-50
-48
-49
-50
-51
-52
-52
-49
-48
-49
-49
-51
-50
-50
-48
-49
-48
-47
-46
-47
-46
-46
-45
-46
-44
-39
-40
-41
-43
-43
-42
-40
-40
-43
-43
-44
-40
-40
-41
-41
-45
-46
-44
-41
-43
-43
-45
-46
-46
-48
-47
-47
-49
-50
-50
-48
-50
-51
-55
-54
-53
-54
-54
-55
-55
-58
-56
-54
-59
-60
-62
-62
-61
-58
-58
-61
-64
-61
-61
-60
-61
-63
-64
-64
-64
-62
-64
-65
-66
-66
-65
-64
-66
-68
-66
-67
-69
-65
-64
-63
-65
-64
-62
-59
-58
-54
-55
-53
-51
-47
-47
-47
-51
-45
-46
-44
-45
-46
-45
-45
-43
-43
-48
-49
-55
-57
-59
-54
-53
-50
-52
-57
-59
-61
-64
-65
-69
-71
-72
-71
-72
-74
-78
-80
-78
-74
-76
-78
-80
-81
-78
-78
-76
-77
-81
-79
-78
-75
-75
-75
-80
-79
-80
-79
-83
-91
-105
-115
-116
-106
-94
-77
-47
11
88
162
234
298
343
362
354
302
203
83
-15
-75
-99
-102
-93
-81
-66
-56
-57
-65
-68
-70
-71
-73
-74
-75
-80
-83
-87
-87
-84
-82
-83
-85
-86
-88
-88
-87
-87
-87
-89
-89
-88
-88
-87
-87
-89
-86
-84
-82
-82
-80
-84
-85
-84
-81
-81
-82
-79
-81
-79
-76
-78
-76
-76
-73
-71
-67
-66
-65
-65
-64
-60
-55
-54
-51
-51
-47
-45
-38
-35
-31
-31
-28
-21
-17
-11
-11
-11
-8
-3
1
3
7
6
10
13
14
18
19
18
17
19
21
24
23
20
17
15
13
10
5
2
-4
-5
-8
-13
-18
-23
-29
-30
-32
-36
-37
-41
-47
-45
-46
-49
-50
-54
-56
-54
-52
-54
-54
-56
-59
-57
-57
-56
-59
-57
-58
-56
-53
-53
-56
-57
-53
-56
-51
-51
-53
-54
-54
-52
-51
-51
-50
-52
-51
-52
-50
-49
-47
-49
-49
-49
-47
-48
-51
-53
-50
-48
-48
-47
-48
-48
-50
-49
-50
-53
-52
-53
-56
-51
-53
-51
-54
-56
-57
-55
-53
-55
-57
-57
-60
-59
-58
-60
-60
-61
-61
-61
-60
-64
-63
-66
-71
-66
-62
-63
-64
-65
-67
-65
-65
-67
-68
-68
-69
-67
-67
-71
-67
-68
-70
-68
-68
-68
-69
-70
-72
-68
-67
-66
-67
-67
-67
-64
-61
-57
-53
-57
-56
-54
-51
-51
-49
-50
-52
-49
-48
-48
-50
-52
-55
-54
-56
-58
-58
-59
-57
-56
-55
-57
-63
-66
-70
-67
-68
-72
-71
-78
-79
-78
-76
-78
-77
-82
-83
-80
-77
-78
-79
-80
-80
-80
-80
-78
-81
-82
-84
-78
-76
-78
-83
-95
-108
-114
-108
-96
-76
-46
7
82
159
228
291
337
350
332
271
173
67
-19
-76
-103
-105
-94
-71
-59
-54
-62
-66
-71
-72
-75
-76
-76
-77
-79
-81
-85
-87
-86
-87
-86
-86
-89
-89
-88
-87
-85
-89
-89
-90
-90
-87
-87
-86
-87
-89
-85
-86
-84
-83
-83
-85
-81
-80
-80
-80
-81
-81
-77
-76
-73
-70
-70
-69
-69
-68
-64
-63
-61
-62
-56
-51
-48
-49
-47
-44
-38
-33
-29
-30
-25
-22
-16
-14
-11
-8
-8
-6
-2
2
6
7
6
8
14
15
14
17
18
20
20
23
20
17
15
10
11
11
9
4
1
-6
-8
-11
-17
-24
-26
-31
-33
-32
-36
-40
-43
-45
-46
-47
-49
-50
-54
-53
-52
-52
-51
-55
-55
-56
-54
-53
-52
-54
-54
-56
-54
-53
-51
-53
-53
-54
-49
-49
-48
-49
-50
-51
-47
-48
-46
-46
-47
-49
-45
-43
-43
-45
-46
-48
-44
-42
-41
-44
-44
-46
-45
-45
-44
-47
-46
-46
-44
-45
-45
-46
-47
-49
-47
-45
-46
-48
-52
-52
-50
-47
-51
-54
-55
-58
-54
-53
-53
-55
-57
-60
-59
-59
-61
-60
-61
-62
-61
-58
-59
-63
-63
-65
-62
-59
-61
-63
-64
-64
-65
-63
-63
-62
-62
-64
-62
-60
-61
-59
-58
-56
-51
-49
-47
-46
-47
-46
-46
-42
-41
-44
-45
-43
-40
-39
-40
-42
-47
-49
-51
-52
-51
-52
-51
-50
-49
-50
-52
-57
-60
-65
-64
-64
-66
-71
-72
-74
-74
-73
-76
-76
-75
-77
-78
-74
-76
-75
-79
-78
-77
-75
-75
-75
-78
-80
-78
-80
-84
-96
-112
-120
-113
-98
-79
-48
8
81
162
236
304
355
376
366
315
213
92
-11
-77
-104
-104
-93
-77
-61
-54
-56
-61
-65
-67
-72
-72
-76
-79
-79
-79
-79
-83
-86
-84
-85
-86
-88
-88
-89
-89
-86
-87
-89
-89
-90
-88
-87
-87
-88
-86
-88
-86
-84
-84
-83
-85
-86
-81
-80
-77
-79
-81
-80
-79
-75
-74
-74
-72
-71
-66
-62
-62
-61
-62
-60
-57
-51
-49
-47
-45
-41
-36
-32
-28
-26
-25
-24
-14
-11
-9
-7
-5
-4
0
3
5
8
8
12
14
17
18
16
19
16
20
23
22
22
19
14
14
13
11
6
4
-1
-5
-7
-10
-15
-20
-27
-29
-32
-34
-37
-42
-46
-45
-49
-48
-50
-55
-55
-56
-56
-56
-57
-58
-60
-60
-58
-58
-58
-60
-59
-58
-58
-56
-58
-57
-59
-57
-54
-55
-55
-54
-55
-54
-53
-52
-51
-53
-52
-49
-48
-48
-48
-49
-51
-49
-46
-48
-50
-52
-52
-49
-47
-46
-49
-52
-51
-51
-51
-51
-52
-52
-50
-52
-52
-50
-55
-56
-56
-56
-56
-54
-57
-59
-61
-60
-58
-60
-61
-64
-63
-59
-60
-62
-63
-66
-66
-65
-65
-66
-64
-66
-67
-66
-65
-66
-68
-67
-68
-66
-66
-67
-69
-68
-70
-69
-67
-68
-67
-67
-64
-64
-61
-57
-56
-54
-58
-56
-52
-51
-51
-49
-49
-49
-48
-46
-47
-47
-47
-47
-46
-48
-51
-57
-60
-61
-58
-55
-56
-58
-63
-63
-64
-65
-67
-70
-72
-73
-71
-71
-73
-76
-80
-81
-80
-80
-80
-83
-81
-80
-79
-79
-82
-81
-84
-82
-79
-79
-78
-79
-79
-77
-79
-82
-88
-97
-110
-120
-118
-108
-99
-86
-58
-5
70
147
219
285
334
363
367
335
263
159
54
-29
-82
-102
-106
-107
-92
-71
-55
-53
-64
-70
-74
-73
-71
-70
-75
-81
-85
-85
-84
-84
-86
-88
-89
-88
-88
-86
-90
-90
-91
-89
-88
-87
-88
-90
-92
-90
-89
-85
-88
-90
-90
-86
-83
-85
-83
-86
-86
-84
-82
-80
-80
-80
-78
-77
-75
-73
-71
-71
-74
-71
-67
-64
-64
-62
-61
-57
-55
-54
-49
-49
-46
-42
-37
-33
-32
-30
-26
-19
-15
-12
-8
-4
-4
-2
2
5
7
8
7
13
16
17
18
18
20
21
22
21
20
16
15
15
13
11
6
2
-4
-6
-9
-14
-18
-24
-28
-30
-33
-36
-41
-44
-46
-46
-48
-48
-51
-53
-55
-53
-52
-52
-53
-54
-57
-55
-53
-57
-57
-57
-57
-56
-55
-52
-52
-55
-56
-56
-51
-51
-52
-53
-53
-52
-49
-50
-49
-51
-52
-50
-49
-47
-47
-49
-49
-49
-45
-47
-48
-49
-49
-46
-45
-45
-47
-51
-51
-47
-48
-47
-48
-51
-50
-51
-48
-52
-53
-54
-55
-52
-52
-54
-55
-57
-60
-60
-59
-56
-58
-61
-60
-57
-59
-60
-62
-62
-62
-60
-60
-61
-61
-61
-64
-64
-65
-62
-63
-61
-65
-63
-61
-61
-64
-65
-67
-64
-63
-60
-60
-59
-57
-52
-49
-49
-49
-50
-50
-48
-44
-44
-43
-43
-47
-46
-42
-40
-38
-41
-43
-44
-46
-50
-53
-53
-56
-52
-50
-46
-50
-53
-60
-60
-60
-60
-63
-66
-70
-68
-69
-69
-72
-74
-79
-77
-71
-73
-75
-74
-77
-74
-72
-72
-74
-76
-74
-73
-70
-70
-74
-76
-79
-80
-83
-91
-104
-109
-105
-97
-83
-57
-11
54
126
199
262
316
344
347
314
237
139
43
-31
-77
-98
-99
-89
-71
-56
-54
-61
-62
-67
-70
-70
-70
-76
-74
-74
-77
-79
-84
-85
-83
-82
-81
-83
-85
-86
-83
-81
-84
-84
-86
-86
-83
-84
-83
-87
-85
-87
-85
-85
-84
-85
-85
-86
-82
-80
-81
-80
-81
-80
-78
-75
-75
-73
-75
-76
-71
-70
-69
-68
-67
-66
-63
-58
-55
-54
-53
-52
-44
-40
-37
-36
-34
-30
-26
-23
-20
-20
-17
-15
-9
-3
0
1
-1
-1
6
8
9
12
13
13
18
20
19
19
18
17
17
21
17
12
7
7
4
3
-2
-10
-16
-20
-21
-23
-25
-31
-36
-41
-41
-44
-42
-44
-47
-49
-50
-48
-49
-51
-53
-52
-52
-49
-49
-52
-52
-57
-55
-51
-51
-51
-51
-52
-51
-48
-47
-51
-51
-51
-49
-44
-45
-45
-46
-46
-44
-46
-44
-44
-45
-47
-44
-44
-42
-44
-46
-46
-46
-43
-43
-43
-48
-47
-44
-44
-45
-45
-46
-48
-45
-46
-45
-46
-49
-49
-50
-49
-51
-50
-51
-51
-52
-50
-52
-54
-56
-55
-54
-53
-55
-56
-59
-59
-59
-57
-59
-60
-62
-62
-59
-58
-59
-63
-62
-64
-61
-59
-59
-60
-62
-64
-61
-62
-62
-62
-60
-58
-51
-49
-46
-49
-48
-49
-46
-43
-43
-42
-42
-43
-40
-39
-36
-37
-39
-41
-41
-42
-45
-48
-50
-51
-50
-47
-44
-46
-46
-51
-51
-53
-57
-58
-65
-66
-67
-68
-63
-68
-71
-74
-73
-71
-72
-73
-74
-76
-73
-72
-72
-74
-76
-77
-71
-72
-72
-73
-73
-74
-74
-77
-87
-104
-116
-115
-102
-90
-70
-33
26
98
178
250
315
361
382
371
325
241
126
19
-57
-97
-107
-93
-78
-58
-48
-51
-55
-61
-64
-67
-72
-71
-73
-74
-76
-79
-82
-86
-84
-83
-84
-84
-87
-87
-85
-84
-84
-84
-86
-90
-87
-84
-83
-83
-87
-87
-84
-83
-82
-83
-83
-83
-79
-80
-77
-78
-77
-80
-77
-73
-69
-70
-71
-69
-66
-64
-62
-64
-61
-60
-56
-48
-47
-45
-45
-43
-37
-30
-28
-27
-27
-23
-18
-12
-9
-6
-3
-4
3
7
11
13
12
13
18
19
23
21
23
25
25
28
30
26
22
19
18
18
16
10
5
-1
-5
-5
-12
-17
-24
-29
-32
-33
-38
-43
-47
-51
-51
-50
-51
-53
-56
-57
-56
-56
-56
-57
-59
-59
-57
-55
-58
-57
-59
-61
-58
-55
-56
-57
-57
-57
-52
-51
-52
-53
-56
-58
-54
-49
-51
-49
-52
-50
-53
-49
-49
-50
-51
-51
-51
-48
-49
-50
-50
-50
-52
-47
-48
-54
-55
-54
-55
-53
-53
-55
-56
-57
-57
-57
-57
-57
-60
-61
-61
-60
-58
-62
-65
-67
-67
-66
-64
-63
-66
-70
-67
-68
-66
-69
-72
-74
-69
-66
-67
-68
-70
-72
-72
-71
-68
-68
-71
-71
-71
-69
-68
-68
-69
-71
-64
-56
-53
-56
-55
-57
-55
-52
-51
-52
-49
-53
-51
-47
-45
-47
-52
-53
-52
-57
-58
-59
-61
-59
-58
-55
-59
-64
-66
-71
-72
-70
-73
-76
-79
-80
-79
-79
-81
-80
-85
-86
-84
-82
-83
-84
-85
-85
-84
-81
-82
-84
-85
-86
-83
-83
-82
-88
-99
-113
-125
-124
-114
-100
-80
-38
34
118
198
270
332
369
377
345
266
147
28
-59
-102
-111
-106
-96
-78
-63
-57
-63
-68
-75
-81
-81
-78
-81
-81
-86
-89
-89
-89
-89
-92
-92
-97
-94
-94
-93
-91
-94
-94
-96
-96
-91
-94
-94
-95
-94
-93
-94
-90
-92
-92
-90
-88
-85
-85
-85
-86
-87
-85
-82
-79
-79
-79
-79
-74
-72
-72
-70
-69
-68
-63
-60
-54
-54
-52
-49
-45
-39
-37
-33
-30
-26
-20
-19
-12
-7
-8
-6
1
6
10
9
9
11
16
21
21
21
21
18
21
23
19
17
13
8
7
6
0
-7
-10
-14
-18
-22
-27
-34
-40
-43
-45
-50
-52
-53
-58
-60
-61
-60
-59
-62
-62
-64
-64
-63
-62
-64
-64
-64
-62
-59
-62
-61
-61
-63
-62
-59
-59
-58
-60
-59
-58
-56
-56
-54
-54
-55
-54
-54
-54
-53
-57
-58
-52
-52
-51
-54
-56
-57
-57
-54
-55
-56
-59
-57
-57
-56
-61
-60
-61
-64
-61
-61
-61
-60
-63
-66
-65
-64
-66
-66
-67
-70
-69
-66
-68
-71
-71
-72
-71
-68
-71
-72
-75
-75
-75
-75
-72
-71
-74
-76
-75
-74
-74
-76
-77
-76
-75
-75
-74
-74
-77
-78
-77
-73
-69
-67
-64
-63
-61
-59
-58
-59
-60
-57
-54
-51
-52
-57
-54
-54
-53
-50
-52
-60
-63
-67
-67
-64
-60
-63
-62
-65
-68
-69
-72
-75
-78
-81
-80
-78
-81
-81
-86
-89
-87
-86
-89
-87
-91
-91
-90
-89
-87
-87
-89
-89
-90
-87
-87
-87
-90
-99
-106
-118
-127
-124
-115
-100
-70
-11
64
144
221
291
345
366
351
286
177
55
-45
-100
-113
-109
-101
-87
-65
-61
-69
-77
-80
-82
-80
-81
-83
-88
-92
-96
-95
-92
-94
-95
-97
-95
-95
-92
-94
-96
-99
-99
-97
-93
-91
-93
-96
-96
-94
-94
-93
-93
-95
-95
-92
-90
-89
-88
-92
-90
-88
-83
-82
-80
-81
-82
-80
-75
-74
-75
-73
-70
-66
-61
-62
-59
-57
-53
-49
-45
-39
-39
-37
-33
-27
-23
-20
-16
-12
-11
-6
-2
-1
3
4
4
7
12
11
14
15
17
16
17
15
13
8
9
7
6
1
-4
-9
-16
-21
-22
-28
-34
-39
-41
-42
-46
-48
-52
-57
-58
-56
-57
-59
-58
-60
-63
-63
-64
-64
-62
-62
-60
-61
-58
-58
-60
-63
-62
-61
-59
-57
-58
-60
-62
-62
-57
-56
-57
-56
-56
-55
-52
-51
-53
-56
-59
-58
-54
-52
-54
-55
-58
-56
-54
-54
-57
-60
-59
-59
-54
-54
-57
-60
-58
-60
-58
-58
-60
-62
-61
-62
-59
-60
-64
-66
-66
-63
-64
-64
-66
-67
-70
-69
-71
-69
-70
-72
-71
-69
-67
-68
-71
-77
-75
-73
-72
-70
-71
-72
-75
-76
-72
-77
-78
-79
-78
-74
-73
-73
-72
-73
-71
-70
-66
-60
-60
-58
-61
-59
-57
-56
-57
-55
-55
-52
-54
-53
-53
-52
-52
-52
-51
-54
-56
-60
-63
-63
-61
-60
-59
-61
-60
-60
-66
-67
-72
-74
-75
-75
-76
-77
-80
-81
-83
-84
-81
-82
-80
-84
-85
-86
-85
-85
-85
-86
-88
-86
-85
-83
-85
-86
-86
-85
-85
-87
-93
-105
-116
-119
-112
-102
-89
-63
-19
42
110
177
241
295
329
344
329
272
183
84
-3
-65
-98
-109
-104
-93
-72
-59
-61
-69
-74
-78
-83
-82
-82
-85
-88
-89
-92
-90
-89
-90
-92
-95
-95
-94
-94
-94
-97
-95
-94
-93
-93
-91
-94
-95
-96
-95
-92
-91
-93
-96
-95
-96
-92
-93
-92
-94
-92
-88
-87
-87
-87
-87
-86
-86
-82
-82
-81
-81
-80
-73
-72
-71
-74
-70
-67
-61
-55
-55
-51
-50
-48
-44
-38
-38
-36
-32
-30
-23
-16
-15
-13
-13
-10
-6
-3
0
-1
-1
1
4
8
9
8
8
9
8
10
7
3
-1
-3
-5
-6
-11
-16
-21
-27
-30
-32
-36
-42
-46
-51
-48
-52
-51
-57
-59
-61
-62
-59
-59
-62
-62
-63
-61
-60
-62
-64
-65
-65
-63
-61
-64
-62
-64
-64
-64
-60
-61
-60
-61
-61
-60
-58
-62
-61
-61
-62
-56
-55
-55
-55
-58
-56
-57
-55
-55
-56
-55
-58
-56
-52
-53
-56
-58
-60
-57
-55
-55
-56
-55
-57
-58
-57
-54
-58
-62
-60
-59
-58
-59
-61
-64
-66
-64
-63
-62
-64
-64
-66
-65
-67
-66
-69
-71
-73
-71
-68
-68
-68
-71
-74
-72
-69
-71
-72
-73
-71
-71
-70
-69
-73
-73
-74
-72
-70
-69
-67
-65
-64
-61
-56
-54
-55
-56
-55
-52
-49
-48
-49
-49
-50
-49
-45
-43
-44
-47
-47
-50
-52
-56
-57
-57
-56
-51
-51
-52
-56
-58
-65
-67
-67
-68
-70
-72
-72
-75
-76
-77
-80
-80
-82
-79
-76
-76
-78
-78
-79
-78
-77
-77
-79
-80
-78
-76
-78
-75
-77
-80
-85
-94
-104
-112
-111
-100
-85
-64
-20
44
120
189
255
317
359
375
361
308
215
107
14
-54
-93
-104
-102
-90
-72
-54
-47
-53
-62
-64
-64
-66
-68
-70
-74
-75
-76
-77
-81
-86
-83
-82
-82
-81
-80
-84
-85
-83
-81
-81
-82
-83
-84
-80
-82
-80
-83
-82
-82
-81
-79
-79
-78
-78
-80
-76
-74
-73
-72
-73
-75
-72
-67
-67
-66
-68
-66
-64
-60
-58
-58
-57
-56
-50
-46
-43
-44
-41
-38
-35
-31
-25
-21
-17
-15
-12
-8
-2
0
2
4
10
14
17
22
22
22
25
27
32
34
32
35
36
39
36
35
32
28
27
29
25
23
15
12
8
3
0
-6
-13
-17
-20
-23
-23
-29
-30
-34
-37
-36
-37
-38
-42
-44
-43
-41
-42
-43
-44
-44
-43
-41
-41
-40
-41
-42
-40
-40
-38
-39
-41
-40
-38
-35
-35
-37
-39
-38
-36
-33
-33
-32
-34
-35
-35
-32
-32
-32
-33
-33
-32
-30
-32
-32
-35
-33
-36
-35
-30
-32
-32
-36
-34
-33
-33
-36
-36
-36
-36
-32
-35
-36
-40
-42
-39
-38
-39
-39
-43
-43
-43
-41
-42
-40
-44
-43
-43
-45
-42
-43
-46
-47
-46
-44
-44
-45
-47
-49
-48
-45
-43
-47
-49
-52
-49
-46
-44
-48
-46
-46
-42
-36
-33
-34
-35
-34
-33
-30
-29
-30
-29
-29
-27
-24
-21
-22
-22
-27
-29
-33
-34
-36
-35
-35
-33
-31
-33
-36
-42
-44
-44
-44
-46
-47
-49
-52
-52
-52
-54
-57
-57
-61
-56
-58
-56
-59
-61
-61
-61
-59
-58
-61
-62
-60
-60
-59
-59
-61
-63
-70
-80
-94
-100
-96
-88
-71
-39
10
75
146
210
274
326
366
375
361
317
227
112
13
-54
-82
-89
-84
-72
-53
-37
-37
-41
-48
-48
-49
-51
-54
-59
-63
-63
-64
-66
-66
-66
-69
-68
-69
-69
-70
-73
-73
-71
-68
-68
-71
-73
-74
-74
-68
-70
-68
-70
-70
-66
-64
-64
-66
-65
-69
-63
-63
-62
-63
-61
-62
-60
-56
-54
-55
-57
-56
-51
-47
-45
-44
-44
-44
-38
-32
-30
-26
-25
-22
-16
-12
-10
-6
-3
-3
2
7
13
16
16
18
23
26
30
31
29
32
36
39
39
39
35
38
42
39
36
37
33
29
29
27
23
17
12
6
4
0
-5
-9
-16
-21
-23
-25
-27
-30
-33
-36
-35
-34
-37
-38
-41
-44
-41
-37
-37
-40
-44
-42
-39
-40
-38
-40
-42
-42
-39
-37
-37
-38
-39
-40
-38
-36
-33
-36
-36
-37
-35
-34
-33
-35
-34
-35
-35
-32
-30
-32
-33
-38
-34
-32
-33
-34
-34
-36
-33
-33
-33
-33
-36
-38
-35
-33
-33
-35
-37
-40
-39
-34
-39
-39
-42
-43
-44
-41
-42
-45
-44
-46
-47
-47
-45
-46
-48
-49
-47
-46
-47
-49
-52
-53
-51
-50
-52
-52
-53
-53
-53
-50
-53
-53
-53
-53
-53
-53
-50
-54
-57
-56
-55
-52
-53
-53
-51
-50
-46
-43
-41
-42
-42
-44
-41
-37
-36
-34
-36
-36
-35
-35
-36
-35
-33
-35
-35
-36
-36
-40
-43
-48
-48
-45
-42
-42
-42
-44
-44
-47
-48
-52
-55
-58
-57
-59
-60
-61
-62
-65
-65
-66
-67
-69
-69
-69
-67
-66
-69
-69
-71
-72
-69
-70
-68
-66
-68
-68
-68
-67
-68
-72
-75
-88
-97
-105
-109
-101
-93
-77
-52
-2
64
134
202
267
322
350
353
325
258
159
55
-25
-71
-93
-99
-96
-75
-55
-46
-50
-56
-64
-65
-63
-62
-66
-66
-72
-73
-73
-74
-74
-76
-78
-74
-76
-75
-77
-79
-80
-78
-78
-78
-77
-82
-81
-80
-80
-77
-81
-79
-81
-78
-76
-75
-75
-76
-76
-75
-71
-70
-72
-71
-71
-66
-66
-65
-62
-64
-62
-59
-54
-53
-51
-50
-51
-44
-39
-35
-33
-31
-26
-22
-18
-15
-13
-11
-10
-5
0
4
4
6
8
13
17
17
18
16
21
24
25
25
23
21
18
16
17
14
12
5
-1
-1
-6
-11
-16
-20
-25
-27
-32
-32
-39
-41
-42
-46
-46
-45
-48
-49
-52
-52
-51
-52
-54
-56
-56
-54
-53
-54
-54
-55
-55
-56
-54
-54
-55
-54
-58
-52
-50
-52
-54
-54
-55
-54
-51
-51
-54
-55
-54
-54
-50
-51
-50
-51
-51
-49
-49
-49
-51
-53
-53
-51
-50
-50
-52
-53
-52
-54
-51
-53
-53
-55
-59
-54
-52
-54
-59
-58
-59
-56
-57
-58
-60
-61
-63
-60
-60
-62
-63
-67
-67
-64
-63
-64
-64
-67
-69
-68
-68
-68
-69
-70
-73
-70
-67
-70
-70
-74
-72
-74
-74
-72
-69
-72
-71
-73
-73
-72
-74
-75
-74
-72
-69
-64
-61
-65
-63
-62
-61
-59
-61
-59
-58
-53
-53
-54
-55
-54
-55
-56
-56
-56
-59
-64
-68
-68
-67
-63
-64
-63
-64
-65
-64
-67
-70
-76
-79
-79
-79
-81
-81
-83
-85
-84
-85
-84
-84
-88
-90
-89
-87
-85
-86
-88
-90
-87
-87
-88
-88
-90
-90
-92
-86
-86
-91
-98
-110
-120
-125
-120
-110
-99
-79
-36
21
88
153
218
274
314
327
305
242
152
52
-29
-82
-107
-114
-114
-99
-76
-63
-65
-72
-79
-84
-84
-83
-85
-87
-92
-95
-94
-94
-95
-96
-100
-100
-100
-99
-99
-98
-100
-100
-101
-99
-100
-99
-100
-101
-97
-95
-94
-95
-97
-100
-97
-94
-94
-95
-96
-98
-97
-92
-89
-89
-89
-89
-85
-83
-81
-83
-84
-81
-76
-71
-66
-65
-65
-63
-57
-53
-49
-47
-44
-43
-35
-34
-29
-29
-26
-23
-22
-16
-12
-10
-11
-10
-7
-6
-4
-3
-4
-4
-2
0
-1
-6
-10
-13
-12
-14
-14
-20
-25
-30
-31
-36
-43
-46
-52
-56
-54
-55
-57
-61
-64
-68
-68
-69
-69
-71
-72
-74
-72
-70
-70
-70
-72
-76
-75
-70
-72
-71
-71
-73
-72
-71
-71
-70
-70
-70
-70
-67
-69
-67
-69
-69
-67
-66
-68
-69
-67
-71
-66
-64
-66
-66
-68
-66
-66
-64
-64
-65
-68
-70
-68
-66
-67
-68
-69
-69
-68
-65
-64
-69
-71
-71
-68
-71
-70
-69
-74
-75
-75
-72
-72
-76
-75
-75
-74
-74
-74
-76
-77
-80
-77
-76
-76
-79
-81
-80
-82
-79
-79
-82
-81
-82
-80
-80
-79
-81
-84
-82
-81
-81
-78
-79
-76
-74
-72
-68
-68
-68
-70
-69
-65
-63
-62
-61
-63
-65
-64
-62
-61
-60
-63
-64
-65
-67
-70
-70
-73
-71
-69
-67
-66
-69
-72
-76
-78
-78
-81
-83
-85
-86
-86
-82
-88
-88
-90
-94
-91
-90
-90
-90
-89
-91
-89
-87
-89
-90
-91
-91
-91
-88
-89
-93
-102
-113
-124
-124
-118
-103
-82
-46
16
94
173
245
298
329
329
299
215
97
-12
-89
-120
-121
-108
-83
-67
-64
-69
-75
-79
-82
-84
-85
-83
-87
-89
-93
-92
-94
-94
-93
-93
-92
-93
-97
-97
-94
-94
-97
-96
-96
-95
-93
-93
-94
-95
-97
-95
-92
-91
-93
-92
-94
-92
-88
-87
-89
-88
-88
-82
-79
-78
-77
-77
-78
-72
-66
-64
-62
-60
-58
-54
-49
-46
-43
-40
-36
-30
-28
-21
-21
-15
-17
-12
-6
-2
-2
-1
-1
3
6
8
8
7
11
13
15
11
11
8
4
2
2
-1
-6
-11
-16
-24
-27
-32
-36
-40
-46
-46
-50
-51
-54
-58
-60
-65
-61
-62
-66
-67
-70
-66
-63
-65
-67
-67
-66
-66
-62
-64
-64
-68
-66
-63
-60
-60
-61
-62
-62
-60
-59
-57
-60
-61
-59
-58
-57
-56
-59
-59
-61
-59
-58
-57
-58
-57
-59
-59
-57
-57
-58
-58
-57
-57
-57
-56
-60
-60
-62
-63
-59
-59
-59
-61
-62
-62
-62
-63
-64
-65
-66
-64
-63
-64
-64
-67
-68
-67
-68
-68
-70
-69
-70
-70
-68
-68
-68
-71
-72
-71
-69
-67
-70
-70
-71
-69
-64
-61
-57
-58
-57
-57
-54
-53
-54
-56
-55
-52
-49
-48
-50
-52
-49
-46
-49
-51
-54
-56
-62
-63
-60
-58
-58
-58
-60
-60
-61
-61
-64
-70
-72
-71
-74
-74
-77
-81
-82
-82
-82
-83
-82
-85
-88
-85
-84
-83
-82
-83
-85
-84
-81
-81
-82
-85
-85
-85
-90
-102
-115
-123
-119
-111
-95
-68
-20
50
128
206
278
328
349
338
286
193
80
-20
-86
-112
-111
-100
-80
-64
-59
-64
-71
-73
-73
-75
-75
-82
-85
-87
-86
-86
-89
-92
-92
-92
-91
-92
-94
-93
-93
-91
-89
-89
-90
-93
-93
-91
-87
-89
-89
-90
-90
-89
-88
-87
-85
-86
-86
-82
-81
-80
-77
-78
-77
-76
-71
-68
-68
-67
-64
-62
-58
-52
-51
-49
-46
-40
-34
-31
-27
-25
-21
-14
-9
-6
-4
-2
-3
2
7
8
12
9
12
16
15
18
17
16
15
15
13
11
7
2
-2
-6
-10
-13
-20
-26
-31
-33
-37
-38
-44
-50
-52
-53
-55
-57
-58
-62
-63
-64
-63
-63
-63
-65
-65
-63
-62
-63
-66
-66
-67
-63
-60
-61
-64
-62
-64
-66
-62
-59
-57
-59
-60
-60
-61
-58
-57
-58
-60
-57
-54
-53
-55
-60
-59
-58
-55
-55
-56
-57
-59
-57
-56
-56
-60
-57
-58
-57
-55
-58
-61
-62
-65
-63
-60
-60
-64
-65
-68
-63
-64
-64
-65
-70
-67
-69
-66
-67
-68
-69
-71
-71
-68
-68
-66
-69
-70
-70
-67
-71
-74
-72
-71
-71
-70
-71
-71
-71
-68
-66
-64
-58
-56
-58
-58
-57
-56
-56
-55
-55
-53
-53
-51
-52
-52
-51
-54
-53
-51
-53
-57
-60
-64
-64
-60
-59
-59
-61
-67
-68
-68
-71
-73
-78
-82
-80
-80
-83
-85
-86
-88
-88
-88
-87
-86
-88
-93
-88
-86
-86
-86
-87
-90
-88
-86
-85
-87
-92
-97
-105
-118
-125
-125
-119
-104
-77
-34
35
115
190
261
318
346
343
304
221
104
-5
-80
-112
-119
-111
-98
-77
-66
-66
-73
-79
-82
-83
-84
-82
-87
-92
-95
-98
-95
-96
-99
-102
-102
-103
-100
-98
-102
-103
-103
-104
-101
-100
-101
-101
-102
-99
-97
-96
-97
-100
-99
-98
-96
-96
-95
-96
-95
-93
-89
-86
-88
-89
-93
-88
-86
-81
-80
-80
-81
-75
-74
-72
-70
-68
-67
-62
-57
-51
-49
-48
-46
-42
-37
-31
-28
-28
-27
-19
-15
-14
-12
-10
-9
-5
-2
1
3
3
1
5
7
9
6
6
1
2
-1
-1
-6
-13
-20
-22
-23
-28
-33
-40
-45
-44
-47
-50
-55
-59
-63
-62
-61
-65
-67
-71
-74
-73
-72
-71
-73
-76
-74
-73
-72
-71
-75
-76
-76
-75
-73
-71
-72
-74
-75
-75
-72
-71
-71
-71
-72
-70
-67
-67
-68
-69
-72
-68
-67
-70
-70
-70
-71
-70
-68
-67
-69
-70
-71
-70
-68
-67
-67
-70
-73
-72
-71
-70
-70
-71
-71
-71
-71
-72
-74
-76
-79
-78
-75
-73
-75
-79
-80
-78
-76
-77
-78
-81
-81
-81
-79
-81
-82
-86
-88
-84
-83
-82
-83
-84
-88
-87
-86
-83
-84
-88
-88
-87
-83
-84
-84
-86
-91
-88
-88
-85
-85
-84
-83
-81
-78
-74
-71
-71
-76
-75
-73
-71
-72
-71
-67
-65
-64
-67
-67
-66
-64
-64
-65
-66
-69
-73
-79
-77
-77
-74
-72
-74
-72
-73
-72
-78
-81
-83
-85
-86
-87
-89
-90
-91
-95
-93
-93
-93
-97
-98
-99
-98
-98
-96
-98
-99
-99
-99
-100
-99
-99
-100
-102
-97
-99
-97
-98
-102
-111
-122
-128
-129
-120
-109
-90
-50
11
80
145
210
268
311
330
319
267
181
79
-3
-63
-100
-117
-120
-109
-86
-72
-74
-84
-92
-96
-95
-95
-93
-96
-100
-103
-102
-100
-103
-103
-105
-107
-106
-103
-103
-105
-109
-112
-109
-106
-108
-109
-109
-108
-104
-103
-104
-104
-106
-108
-101
-101
-101
-102
-101
-103
-101
-99
-97
-97
-99
-95
-94
-92
-90
-92
-92
-88
-86
-83
-79
-78
-73
-74
-70
-64
-61
-60
-57
-52
-48
-40
-38
-34
-34
-33
-29
-27
-22
-18
-20
-18
-13
-13
-8
-5
-4
-3
-3
-3
-2
-3
-6
-11
-13
-14
-14
-18
-22
-26
-28
-30
-36
-40
-46
-50
-52
-54
-57
-62
-67
-68
-70
-68
-71
-70
-73
-75
-76
-75
-77
-78
-80
-76
-76
-74
-75
-76
-75
-77
-75
-75
-75
-75
-76
-78
-74
-72
-72
-70
-72
-73
-71
-69
-70
-72
-74
-74
-69
-72
-70
-71
-71
-70
-69
-67
-68
-70
-71
-71
-69
-70
-69
-70
-73
-75
-73
-70
-71
-73
-73
-75
-74
-73
-72
-74
-75
-77
-78
-78
-79
-78
-78
-78
-79
-77
-78
-78
-81
-81
-80
-81
-82
-84
-84
-86
-84
-84
-82
-84
-86
-89
-85
-84
-85
-84
-87
-88
-87
-85
-87
-88
-89
-90
-87
-86
-82
-83
-83
-82
-78
-76
-73
-72
-75
-75
-72
-69
-69
-69
-70
-71
-67
-63
-64
-63
-68
-68
-68
-67
-70
-71
-76
-78
-77
-74
-70
-71
-71
-77
-77
-79
-81
-82
-84
-88
-91
-88
-90
-91
-96
-97
-97
-95
-96
-95
-97
-98
-99
-96
-97
-98
-98
-99
-97
-94
-94
-95
-98
-100
-96
-96
-99
-103
-115
-125
-132
-125
-117
-103
-85
-47
12
80
148
214
274
321
342
337
293
204
93
-10
-83
-115
-123
-118
-104
-87
-73
-71
-75
-81
-87
-90
-89
-88
-91
-95
-98
-101
-101
-101
-100
-102
-106
-106
-107
-104
-105
-105
-105
-106
-106
-101
-103
-102
-103
-103
-102
-104
-101
-100
-101
-102
-101
-102
-102
-100
-101
-101
-98
-96
-95
-94
-94
-95
-91
-87
-87
-85
-84
-84
-80
-77
-75
-73
-72
-70
-64
-61
-55
-53
-50
-50
-42
-40
-36
-32
-30
-29
-23
-17
-15
-15
-12
-13
-8
-4
-2
2
-1
2
4
4
3
4
2
2
0
-2
-9
-10
-16
-21
-26
-32
-34
-39
-45
-52
-52
-54
-56
-63
-65
-69
-69
-71
-71
-74
-74
-76
-75
-74
-75
-76
-79
-78
-77
-76
-75
-75
-77
-78
-75
-74
-74
-72
-75
-76
-72
-72
-70
-69
-72
-72
-70
-69
-68
-68
-71
-73
-70
-67
-67
-67
-71
-69
-71
-65
-65
-71
-70
-71
-68
-67
-66
-69
-73
-74
-71
-70
-68
-69
-70
-73
-71
-71
-70
-72
-74
-75
-73
-74
-70
-75
-75
-79
-78
-77
-76
-79
-78
-82
-81
-79
-79
-79
-83
-82
-82
-79
-82
-82
-83
-83
-83
-82
-82
-82
-85
-84
-82
-82
-81
-80
-82
-83
-82
-81
-80
-79
-77
-74
-73
-68
-66
-68
-67
-70
-68
-63
-62
-59
-63
-63
-59
-58
-58
-56
-57
-59
-61
-60
-61
-65
-71
-74
-72
-69
-67
-68
-68
-72
-72
-76
-75
-77
-83
-84
-85
-84
-84
-85
-89
-91
-90
-87
-91
-92
-92
-91
-93
-89
-90
-91
-93
-93
-93
-90
-91
-91
-92
-92
-90
-93
-95
-107
-120
-129
-124
-113
-99
-72
-30
37
120
192
259
320
356
363
340
276
168
50
-45
-100
-116
-114
-106
-92
-75
-71
-70
-78
-82
-84
-86
-86
-87
-87
-89
-94
-98
-99
-98
-99
-99
-98
-99
-102
-98
-99
-100
-100
-103
-104
-100
-100
-101
-100
-99
-101
-99
-98
-99
-97
-95
-96
-94
-92
-92
-94
-93
-93
-88
-87
-85
-85
-83
-83
-83
-83
-78
-76
-73
-73
-68
-64
-61
-58
-60
-57
-53
-46
-41
-38
-36
-32
-25
-22
-21
-16
-12
-11
-7
-2
2
4
5
7
10
14
15
16
15
18
18
16
16
15
11
6
7
4
2
-2
-11
-15
-18
-26
-25
-32
-38
-43
-46
-46
-50
-53
-58
-60
-62
-60
-62
-65
-64
-66
-66
-69
-69
-70
-71
-71
-69
-67
-66
-67
-69
-71
-69
-68
-69
-70
-69
-68
-68
-65
-66
-64
-66
-67
-62
-63
-61
-64
-63
-63
-61
-59
-61
-62
-61
-60
-59
-59
-57
-59
-62
-59
-60
-60
-59
-62
-61
-62
-61
-60
-60
-59
-63
-63
-59
-60
-60
-62
-65
-65
-64
-64
-67
-69
-68
-68
-70
-69
-70
-68
-70
-72
-69
-69
-69
-71
-73
-73
-72
-72
-74
-75
-75
-76
-74
-72
-74
-75
-76
-78
-76
-74
-75
-77
-78
-78
-77
-73
-76
-77
-80
-81
-79
-76
-77
-77
-77
-79
-76
-75
-71
-67
-65
-67
-64
-62
-60
-62
-64
-64
-60
-55
-56
-55
-57
-58
-53
-51
-50
-56
-60
-62
-65
-63
-64
-66
-66
-64
-60
-61
-63
-67
-69
-74
-73
-74
-73
-76
-81
-81
-84
-84
-83
-84
-87
-86
-87
-87
-86
-85
-87
-87
-86
-85
-84
-85
-87
-87
-85
-85
-82
-83
-88
-94
-100
-112
-121
-121
-111
-95
-65
-10
62
145
220
289
342
366
352
284
175
56
-36
-91
-109
-112
-103
-82
-66
-64
-71
-77
-80
-81
-82
-83
-83
-86
-89
-91
-95
-93
-90
-91
-90
-93
-94
-91
-92
-95
-93
-94
-93
-90
-91
-91
-93
-94
-92
-89
-89
-90
-88
-88
-88
-87
-83
-86
-85
-84
-82
-80
-78
-78
-77
-77
-76
-72
-70
-68
-67
-64
-58
-55
-51
-48
-46
-46
-40
-34
-28
-25
-23
-22
-15
-13
-8
-8
-6
-2
0
8
9
9
9
8
11
15
16
17
13
12
15
15
11
9
1
-2
-6
-6
-13
-20
