-89
-89
-89
-89
-89
-89
-89
-89
-90
-86
-87
-81
-77
-73
-71
-68
-65
-61
-57
-52
-49
-45
-48
-45
-42
-39
-38
-39
-41
-41
-40
-41
-42
-43
-47
-47
-44
-47
-48
-51
-56
-55
-53
-54
-54
-57
-61
-61
-59
-58
-60
-61
-63
-62
-63
-59
-60
-62
-63
-63
-64
-63
-61
-62
-66
-65
-66
-64
-64
-62
-65
-66
-66
-65
-65
-67
-67
-66
-64
-64
-67
-67
-69
-68
-65
-64
-65
-70
-72
-70
-65
-62
-65
-67
-68
-68
-66
-65
-67
-68
-69
-66
-67
-65
-65
-67
-68
-65
-65
-64
-65
-66
-69
-65
-65
-65
-64
-65
-66
-67
-61
-62
-59
-57
-58
-49
-46
-42
-46
-49
-49
-45
-38
-31
-29
-30
-31
-30
-28
-26
-24
-25
-28
-29
-30
-31
-30
-35
-40
-48
-56
-65
-72
-76
-78
-76
-76
-74
-76
-79
-83
-79
-79
-76
-74
-75
-78
-77
-76
-73
-75
-74
-80
-77
-74
-75
-74
-74
-72
-71
-71
-73
-74
-74
-71
-60
-42
-17
10
47
80
118
155
183
205
220
232
236
218
192
165
142
115
82
51
29
19
1
-21
-39
-49
-57
-65
-75
-86
-94
-99
-101
-104
-110
-112
-110
-108
-104
-108
-108
-110
-109
-106
-103
-106
-106
-107
-109
-105
-103
-102
-105
-107
-104
-102
-101
-102
-105
-107
-107
-103
-102
-103
-104
-106
-109
-107
-105
-103
-106
-107
-106
-103
-104
-106
-105
-103
-104
-99
-96
-98
-97
-99
-94
-94
-90
-89
-86
-87
-84
-80
-75
-74
-72
-70
-66
-60
-52
-50
-48
-47
-46
-42
-41
-36
-35
-37
-34
-33
-32
-31
-34
-34
-35
-35
-37
-37
-39
-40
-43
-44
-43
-46
-53
-56
-53
-52
-53
-51
-56
-62
-61
-58
-57
-60
-57
-58
-58
-58
-59
-59
-62
-62
-62
-63
-63
-63
-65
-66
-65
-62
-63
-64
-65
-72
-67
-64
-62
-64
-64
-66
-66
-62
-58
-60
-65
-66
-69
-65
-64
-64
-62
-63
-64
-64
-63
-62
-66
-68
-67
-65
-64
-64
-65
-69
-67
-64
-64
-64
-66
-72
-69
-64
-64
-66
-68
-71
-69
-66
-61
-60
-59
-61
-57
-49
-45
-45
-49
-52
-50
-44
-41
-35
-36
-35
-34
-29
-24
-29
-30
-33
-34
-33
-34
-37
-41
-48
-54
-65
-72
-78
-79
-81
-81
-83
-82
-80
-82
-84
-84
-80
-79
-79
-80
-78
-78
-77
-76
-78
-80
-79
-77
-75
-74
-73
-77
-78
-77
-78
-78
-77
-74
-66
-45
-18
18
54
92
128
166
196
217
235
235
213
182
156
132
106
77
49
35
31
19
0
-23
-38
-50
-59
-70
-83
-91
-98
-99
-99
-102
-104
-108
-112
-110
-108
-104
-103
-104
-106
-105
-99
-95
-97
-99
-102
-103
-101
-99
-100
-98
-99
-98
-98
-97
-100
-101
-103
-103
-102
-101
-101
-100
-101
-102
-100
-100
-100
-101
-105
-103
-103
-103
-99
-100
-102
-99
-98
-94
-95
-96
-95
-90
-88
-83
-82
-84
-80
-77
-69
-65
-64
-67
-65
-61
-57
-51
-48
-47
-47
-46
-41
-38
-40
-40
-44
-41
-44
-41
-43
-49
-52
-50
-51
-50
-53
-56
-60
-59
-60
-60
-61
-62
-66
-66
-64
-63
-64
-66
-69
-69
-68
-67
-67
-68
-71
-68
-69
-68
-70
-70
-73
-73
-70
-67
-67
-70
-72
-74
-72
-69
-70
-73
-73
-74
-71
-71
-72
-73
-73
-71
-67
-68
-71
-75
-77
-75
-72
-70
-71
-73
-75
-74
-72
-71
-71
-73
-73
-71
-67
-65
-67
-72
-75
-71
-67
-64
-64
-58
-60
-55
-50
-44
-48
-51
-49
-43
-36
-34
-33
-29
-27
-25
-23
-21
-23
-26
-34
-34
-36
-36
-42
-51
-63
-70
-74
-75
-74
-78
-81
-80
-78
-75
-76
-77
-81
-77
-75
-75
-76
-75
-76
-74
-71
-70
-71
-73
-75
-72
-70
-68
-68
-71
-76
-76
-72
-64
-46
-20
11
48
83
122
155
185
206
221
231
228
207
177
151
130
108
74
38
16
-3
-16
-35
-49
-61
-73
-82
-90
-94
-98
-99
-107
-112
-114
-113
-111
-112
-113
-117
-114
-111
-110
-109
-111
-114
-112
-110
-109
-105
-106
-109
-107
-106
-106
-104
-105
-107
-107
-105
-107
-105
-106
-110
-107
-106
-104
-107
-109
-110
-108
-105
-105
-107
-108
-106
-104
-102
-100
-101
-103
-104
-102
-101
-99
-96
-95
-95
-91
-85
-80
-82
-81
-80
-77
-74
-69
-63
-62
-63
-58
-52
-50
-47
-46
-48
-45
-44
-41
-40
-36
-37
-36
-37
-34
-38
-42
-45
-46
-43
-43
-46
-50
-52
-54
-51
-51
-53
-55
-55
-56
-57
-54
-54
-59
-60
-62
-62
-59
-59
-59
-63
-63
-65
-63
-63
-63
-65
-67
-66
-66
-64
-64
-65
-65
-62
-62
-63
-61
-62
-64
-64
-64
-64
-64
-66
-64
-63
-61
-63
-63
-68
-67
-65
-63
-62
-66
-68
-64
-61
-59
-60
-63
-66
-66
-62
-59
-60
-64
-66
-65
-62
-59
-62
-64
-63
-59
-56
-53
-49
-49
-49
-48
-44
-43
-46
-42
-39
-36
-32
-27
-25
-26
-26
-24
-19
-21
-21
-26
-30
-28
-29
-34
-46
-56
-65
-68
-68
-67
-72
-73
-75
-74
-71
-68
-69
-70
-69
-70
-70
-66
-63
-65
-68
-66
-67
-63
-62
-62
-64
-63
-61
-61
-63
-65
-67
-66
-55
-33
-2
37
71
112
154
189
210
228
236
228
207
179
154
135
114
92
62
34
13
-6
-22
-39
-54
-66
-73
-84
-97
-100
-102
-100
-101
-103
-107
-109
-108
-108
-108
-107
-104
-103
-103
-102
-102
-101
-100
-99
-98
-98
-99
-99
-97
-93
-94
-94
-95
-99
-98
-94
-94
-97
-96
-100
-97
-95
-97
-96
-98
-99
-101
-102
-95
-96
-97
-100
-99
-97
-95
-93
-94
-97
-93
-90
-85
-84
-80
-83
-79
-77
-76
-75
-74
-74
-69
-63
-57
-56
-51
-52
-47
-43
-39
-38
-36
-35
-33
-31
-28
-29
-30
-31
-35
-35
-32
-35
-40
-43
-44
-43
-45
-46
-46
-48
-47
-48
-49
-51
-49
-49
-51
-49
-48
-51
-53
-56
-55
-54
-52
-52
-54
-56
-57
-56
-54
-54
-55
-54
-54
-54
-53
-51
-55
-58
-56
-54
-56
-57
-56
-56
-55
-55
-52
-53
-56
-57
-56
-54
-50
-54
-58
-56
-58
-53
-52
-51
-54
-57
-57
-55
-52
-54
-53
-56
-56
-52
-53
-55
-56
-59
-55
-50
-49
-51
-54
-57
-57
-53
-48
-47
-45
-41
-34
-29
-30
-36
-35
-34
-26
-20
-17
-18
-15
-17
-18
-15
-11
-13
-15
-18
-22
-22
-24
-26
-38
-52
-60
-65
-66
-67
-68
-67
-66
-68
-68
-67
-67
-68
-65
-67
-65
-64
-65
-65
-65
-62
-59
-61
-61
-61
-56
-54
-55
-58
-63
-62
-58
-49
-32
-9
23
60
103
148
187
215
239
247
239
216
192
167
148
125
93
62
43
28
5
-16
-32
-46
-54
-65
-77
-89
-92
-92
-97
-97
-99
-100
-99
-102
-103
-101
-99
-99
-99
-95
-95
-96
-97
-98
-100
-97
-94
-94
-93
-94
-93
-93
-96
-95
-96
-96
-96
-93
-94
-94
-95
-97
-93
-92
-91
-90
-92
-96
-92
-90
-88
-89
-90
-93
-93
-93
-91
-88
-86
-87
-84
-82
-78
-74
-73
-72
-66
-63
-59
-55
-56
-54
-48
-44
-40
-37
-36
-35
-32
-27
-23
-25
-26
-31
-30
-28
-27
-28
-32
-35
-35
-36
-34
-37
-40
-43
-44
-45
-47
-47
-48
-50
-50
-48
-47
-50
-50
-56
-54
-54
-52
-55
-55
-60
-57
-55
-53
-54
-56
-59
-58
-57
-53
-57
-59
-59
-62
-58
-56
-57
-58
-58
-59
-58
-57
-58
-57
-62
-60
-61
-59
-58
-58
-58
-59
-60
-56
-56
-57
-60
-58
-57
-55
-54
-55
-60
-58
-55
-55
-54
-57
-59
-57
-56
-53
-54
-54
-54
-55
-51
-51
-51
-53
-54
-45
-41
-39
-37
-39
-40
-39
-35
-29
-26
-26
-25
-22
-19
-12
-14
-15
-21
-20
-17
-17
-18
-23
-26
-31
-36
-44
-55
-61
-71
-70
-67
-66
-68
-70
-74
-69
-68
-66
-66
-68
-68
-66
-65
-64
-64
-66
-68
-64
-61
-59
-58
-60
-64
-60
-62
-62
-63
-62
-60
-47
-28
0
36
73
111
151
188
215
232
242
233
213
188
167
151
131
105
72
44
27
14
-4
-26
-43
-55
-63
-72
-82
-89
-91
-93
-93
-94
-97
-99
-101
-100
-99
-100
-99
-100
-99
-96
-94
-95
-94
-97
-95
-93
-93
-94
-99
-99
-97
-95
-94
-96
-97
-101
-99
-95
-92
-93
-96
-97
-99
-95
-97
-97
-95
-99
-101
-98
-97
-94
-94
-94
-97
-93
-93
-93
-92
-90
-91
-86
-82
-82
-82
-81
-76
-70
-68
-66
-65
-60
-54
-49
-48
-45
-46
-46
-42
-39
-35
-35
-35
-35
-34
-31
-28
-31
-35
-38
-36
-39
-41
-40
-41
-46
-46
-45
-42
-45
-48
-49
-50
-49
-49
-49
-52
-56
-58
-56
-52
-52
-57
-59
-57
-56
-53
-54
-55
-61
-60
-59
-55
-56
-59
-60
-59
-58
-57
-58
-60
-60
-58
-57
-59
-56
-57
-59
-57
-58
-55
-57
-61
-61
-61
-57
-57
-58
-59
-61
-61
-59
-57
-56
-56
-59
-58
-57
-55
-57
-56
-59
-58
-58
-57
-56
-58
-60
-55
-55
-55
-55
-58
-57
-54
-53
-49
-46
-44
-44
-42
-36
-36
-38
-38
-38
-30
-25
-21
-19
-18
-18
-15
-12
-13
-16
-19
-22
-21
-20
-20
-25
-34
-45
-54
-59
-61
-65
-69
-68
-67
-65
-64
-66
-68
-70
-68
-64
-64
-64
-64
-65
-65
-64
-60
-59
-61
-62
-62
-61
-58
-56
-61
-62
-63
-65
-62
-60
-51
-36
-9
27
64
99
135
171
203
227
240
241
220
190
164
149
132
104
71
48
31
28
16
-4
-25
-44
-58
-65
-71
-79
-87
-91
-92
-95
-96
-99
-100
-102
-100
-97
-95
-96
-99
-98
-97
-95
-89
-92
-97
-99
-98
-96
-93
-93
-94
-96
-95
-92
-94
-92
-94
-94
-96
-97
-95
-95
-98
-102
-102
-102
-99
-100
-102
-101
-99
-101
-98
-98
-99
-99
-97
-94
-93
-97
-96
-97
-94
-88
-86
-88
-87
-85
-81
-80
-77
-73
-71
-70
-66
-63
-58
-55
-54
-53
-50
-49
-43
-40
-38
-39
-35
-32
-31
-30
-32
-33
-32
-31
-31
-34
-37
-40
-42
-39
-40
-42
-47
-48
-49
-47
-44
-46
-51
-54
-55
-53
-52
-53
-53
-55
-57
-55
-53
-52
-55
-58
-56
-59
-56
-57
-58
-62
-59
-57
-57
-59
-62
-65
-62
-59
-57
-59
-61
-61
-62
-59
-58
-58
-60
-61
-59
-60
-60
-59
-57
-59
-58
-56
-55
-58
-61
-61
-59
-57
-55
-58
-59
-62
-60
-59
-55
-55
-58
-60
-61
-58
-58
-57
-56
-57
-58
-57
-56
-57
-55
-57
-55
-53
-53
-53
-53
-51
-44
-37
-35
-36
-40
-43
-38
-32
-25
-23
-22
-23
-23
-20
-15
-15
-17
-20
-19
-17
-20
-24
-25
-29
-33
-39
-49
-60
-65
-70
-70
-68
-68
-70
-72
-74
-71
-68
-67
-69
-67
-70
-70
-68
-68
-67
-67
-70
-68
-65
-62
-59
-65
-65
-62
-64
-63
-63
-66
-67
-64
-55
-43
-20
2
33
68
105
141
172
196
216
236
241
231
205
176
154
137
119
96
66
44
33
18
3
-16
-35
-50
-62
-72
-83
-93
-98
-101
-104
-105
-107
-106
-106
-105
-110
-110
-111
-106
-105
-106
-106
-105
-105
-104
-105
-106
-104
-101
-102
-101
-101
-104
-105
-104
-101
-101
-101
-104
-105
-107
-106
-105
-105
-105
-106
-105
-105
-104
-105
-107
-106
-106
-104
-103
-106
-105
-106
-106
-102
-99
-99
-99
-101
-98
-93
-88
-87
-87
-89
-86
-81
-75
-73
-69
-67
-67
-63
-58
-60
-55
-55
-50
-46
-44
-44
-42
-43
-38
-36
-33
-34
-37
-41
-39
-38
-37
-37
-40
-42
-45
-44
-44
-47
-48
-52
-54
-55
-54
-55
-56
-58
-57
-55
-55
-58
-59
-62
-62
-59
-55
-59
-60
-63
-64
-62
-59
-60
-63
-67
-64
-63
-61
-63
-64
-65
-64
-63
-63
-62
-66
-67
-63
-64
-62
-62
-65
-67
-65
-62
-61
-60
-63
-64
-62
-61
-58
-60
-63
-62
-63
-61
-61
-62
-63
-63
-62
-60
-58
-62
-63
-66
-63
-59
-59
-60
-60
-63
-60
-58
-57
-57
-59
-61
-62
-59
-56
-54
-51
-50
-44
-41
-38
-39
-42
-44
-39
-35
-32
-31
-30
-29
-26
-22
-19
-22
-21
-25
-27
-26
-25
-28
-31
-40
-48
-55
-60
-64
-69
-76
-77
-74
-71
-73
-75
-76
-73
-71
-71
-72
-72
-74
-71
-69
-69
-67
-68
-68
-68
-65
-63
-64
-67
-69
-65
-69
-65
-63
-57
-37
-5
33
75
119
152
189
218
240
256
251
229
199
170
146
125
94
61
35
20
7
-12
-29
-47
-58
-67
-77
-87
-92
-98
-99
-102
-105
-107
-108
-107
-111
-112
-106
-104
-104
-105
-108
-106
-105
-104
-104
-103
-105
-103
-100
-100
-101
-102
-106
-106
-102
-102
-101
-101
-102
-106
-102
-100
-101
-103
-105
-104
-100
-99
-99
-103
-104
-105
-102
-102
-102
-100
-100
-98
-96
-97
-94
-92
-93
-90
-87
-84
-83
-82
-82
-80
-72
-68
-66
-62
-62
-60
-55
-51
-47
-46
-47
-42
-38
-35
-32
-32
-32
-33
-34
-36
-35
-37
-41
-41
-40
-42
-44
-45
-50
-50
-50
-52
-52
-54
-59
-57
-52
-52
-54
-55
-61
-60
-59
-59
-58
-57
-60
-61
-60
-59
-60
-62
-63
-63
-61
-60
-61
-60
-64
-64
-63
-64
-65
-64
-66
-66
-64
-61
-62
-63
-64
-63
-61
-60
-61
-61
-66
-64
-61
-60
-61
-59
-60
-65
-61
-58
-59
-60
-63
-64
-62
-61
-60
-62
-64
-62
-61
-59
-59
-62
-63
-64
-62
-62
-61
-62
-61
-61
-58
-52
-50
-48
-50
-47
-44
-42
-45
-44
-45
-36
-32
-29
-25
-27
-25
-22
-21
-22
-23
-27
-31
-31
-34
-35
-39
-47
-56
-65
-66
-69
-72
-75
-76
-75
-76
-76
-76
-78
-75
-71
-71
-70
-69
-69
-70
-69
-68
-66
-65
-67
-68
-68
-64
-62
-65
-64
-67
-68
-64
-63
-55
-39
-10
23
63
96
134
166
191
216
233
244
240
218
186
162
144
123
88
52
25
7
-6
-19
-39
-56
-66
-73
-77
-84
-93
-99
-103
-105
-106
-105
-106
-105
-108
-107
-105
-104
-104
-107
-103
-103
-100
-104
-104
-102
-105
-104
-99
-98
-104
-102
-103
-102
-101
-101
-102
-100
-103
-104
-103
-103
-105
-102
-104
-101
-100
-100
-102
-102
-102
-102
-100
-100
-100
-100
-99
-97
-91
-92
-88
-92
-91
-87
-81
-80
-79
-80
-80
-74
-69
-65
-63
-61
-58
-54
-49
-45
-45
-41
-44
-39
-37
-35
-36
-38
-39
-37
-38
-40
-39
-44
-48
-48
-48
-46
-47
-48
-53
-53
-51
-51
-52
-53
-54
-56
-53
-50
-54
-56
-58
-56
-55
-56
-55
-56
-58
-59
-58
-60
-56
-60
-59
-59
-56
-56
-56
-58
-60
-55
-54
-55
-57
-57
-58
-55
-56
-53
-54
-58
-60
-55
-57
-54
-55
-56
-57
-56
-53
-54
-52
-55
-56
-55
-51
-49
-49
-53
-57
-55
-55
-51
-51
-51
-54
-53
-51
-47
-46
-47
-50
-47
-41
-35
-31
-32
-32
-32
-31
-30
-28
-23
-21
-16
-14
-11
-9
-9
-11
-10
-13
-14
-14
-16
-20
-24
-32
-39
-50
-58
-63
-63
-64
-59
-62
-64
-63
-63
-59
-55
-56
-58
-63
-59
-58
-58
-55
-58
-60
-58
-55
-53
-51
-53
-58
-59
-57
-51
-44
-31
-15
12
42
76
111
149
183
213
233
250
244
219
186
159
136
114
82
55
39
26
7
-11
-26
-39
-51
-62
-69
-74
-81
-85
-88
-90
-90
-90
-93
-92
-96
-92
-89
-86
-87
-90
-93
-92
-90
-89
-86
-88
-88
-91
-86
-88
-87
-87
-89
-89
-87
-87
-87
-89
-88
-87
-86
-86
-88
-88
-87
-87
-86
-84
-86
-88
-88
-89
-87
-82
-83
-83
-86
-83
-81
-78
-76
-77
-79
-77
-72
-66
-64
-62
-62
-62
-56
-49
-45
-42
-41
-39
-33
-30
-28
-27
-23
-22
-19
-19
-21
-22
-23
-21
-22
-22
-25
-28
-30
-31
-30
-31
-34
-35
-38
-36
-34
-35
-35
-38
-42
-40
-40
-39
-40
-43
-44
-45
-43
-39
-44
-41
-46
-46
-44
-43
-43
-46
-50
-48
-46
-44
-43
-46
-46
-44
-45
-46
-46
-44
-46
-46
-45
-43
-44
-44
-45
-45
-42
-43
-42
-43
-43
-43
-42
-40
-43
-45
-46
-43
-40
-41
-41
-40
-43
-39
-38
-35
-38
-42
-44
-43
-39
-38
-37
-35
-30
-23
-19
-18
-22
-24
-26
-22
-14
-10
-8
-7
-10
-8
-1
2
0
-4
-9
-9
-8
-11
-18
-32
-44
-54
-52
-53
-53
-55
-58
-56
-57
-54
-51
-53
-53
-52
-52
-52
-52
-53
-53
-49
-47
-46
-44
-45
-49
-45
-43
-41
-41
-46
-49
-45
-38
-21
5
40
78
123
166
201
226
242
254
264
255
229
194
168
143
110
82
62
47
31
8
-12
-28
-37
-48
-58
-70
-74
-74
-77
-81
-86
-87
-86
-86
-86
-84
-87
-87
-86
-84
-79
-81
-81
-84
-83
-78
-76
-79
-82
-84
-83
-81
-77
-78
-83
-84
-83
-79
-78
-78
-80
-88
-89
-84
-81
-83
-82
-85
-85
-84
-81
-84
-86
-86
-86
-84
-81
-80
-82
-81
-78
-76
-73
-69
-67
-66
-63
-61
-56
-55
-54
-54
-50
-45
-41
-39
-36
-37
-32
-27
-22
-20
-20
-21
-22
-20
-16
-19
-19
-25
-23
-22
-23
-23
-25
-31
-30
-27
-29
-29
-30
-33
-35
-34
-36
-37
-40
-40
-39
-38
-40
-38
-40
-41
-41
-41
-39
-40
-43
-45
-45
-44
-45
-47
-47
-46
-43
-43
-42
-42
-43
-45
-42
-41
-40
-43
-45
-47
-46
-43
-39
-39
-41
-46
-45
-43
-41
-42
-45
-46
-43
-44
-45
-46
-45
-44
-44
-41
-41
-42
-43
-45
-44
-44
-44
-43
-44
-46
-43
-40
-41
-41
-43
-41
-36
-29
-24
-24
-27
-29
-25
-19
-13
-9
-10
-10
-7
-4
0
-2
-7
-10
-13
-10
-12
-18
-26
-38
-47
-52
-56
-57
-60
-60
-59
-59
-54
-53
-54
-58
-58
-57
-55
-54
-54
-57
-55
-51
-50
-49
-51
-54
-52
-51
-51
-50
-54
-56
-48
-34
-6
26
61
100
145
188
220
243
252
240
213
186
160
132
99
68
47
39
34
17
-5
-26
-39
-50
-61
-71
-79
-84
-84
-85
-88
-88
-92
-91
-92
-90
-87
-88
-90
-90
-88
-85
-82
-84
-87
-88
-86
-85
-83
-85
-85
-85
-84
-82
-81
-83
-84
-85
-87
-86
-85
-82
-85
-85
-85
-85
-86
-88
-88
-86
-85
-84
-81
-82
-85
-82
-83
-81
-82
-79
-80
-81
-77
-73
-69
-66
-65
-64
-62
-58
-56
-53
-52
-54
-49
-44
-38
-34
-32
-34
-31
-28
-25
-26
-25
-25
-22
-21
-22
-22
-24
-25
-28
-27
-26
-30
-31
-36
-37
-36
-33
-35
-40
-40
-40
-42
-38
-42
-42
-42
-44
-42
-42
-45
-44
-47
-45
-43
-44
-47
-49
-52
-50
-49
-51
-51
-51
-51
-50
-50
-48
-49
-49
-49
-50
-49
-47
-47
-49
-49
-49
-49
-48
-53
-50
-53
-49
-46
-46
-48
-50
-53
-51
-49
-46
-47
-47
-50
-49
-47
-48
-48
-51
-54
-50
-49
-50
-48
-52
-52
-53
-49
-48
-49
-48
-48
-48
-44
-42
-38
-34
-36
-33
-30
-30
-35
-35
-33
-25
-19
-14
-13
-15
-14
-12
-6
-5
-7
-11
-15
-13
-14
-19
-23
-32
-44
-51
-56
-56
-58
-62
-64
-62
-59
-59
-59
-61
-61
-59
-56
-55
-56
-58
-61
-57
-55
-55
-53
-51
-53
-53
-52
-49
-49
-52
-54
-53
-46
-34
-14
14
46
82
116
150
176
201
221
238
249
240
213
181
152
132
106
75
47
27
15
0
-17
-31
-44
-52
-60
-66
-71
-78
-82
-89
-90
-90
-89
-92
-91
-93
-94
-89
-87
-87
-86
-89
-87
-87
-83
-80
-81
-84
-87
-85
-84
-86
-87
-90
-90
-87
-85
-83
-85
-89
-92
-91
-86
-86
-86
-87
-89
-88
-85
-85
-88
-87
-91
-89
-87
-86
-86
-84
-86
-85
-85
-82
-81
-80
-79
-77
-71
-72
-68
-68
-68
-66
-62
-60
-58
-57
-56
-50
-47
-40
-38
-38
-37
-33
-31
-26
-24
-25
-25
-23
-23
-22
-21
-23
-25
-28
-27
-27
-32
-35
-35
-33
-34
-36
-35
-39
-42
-40
-39
-39
-41
-42
-46
-45
-44
-42
-44
-46
-51
-46
-46
-44
-45
-46
-49
-49
-49
-47
-48
-48
-47
-49
-46
-45
-45
-48
-50
-46
-46
-43
-48
-49
-49
-45
-45
-45
-45
-47
-48
-46
-46
-44
-45
-46
-51
-48
-48
-47
-47
-49
-52
-48
-45
-45
-46
-52
-47
-48
-47
-48
-48
-45
-46
-46
-43
-46
-46
-48
-50
-47
-47
-45
-45
-46
-46
-42
-43
-33
-32
-26
-28
-28
-32
-29
-26
-23
-23
-18
-15
-12
-12
-11
-11
-8
-5
-7
-11
-14
-18
-19
-20
-24
-32
-45
-57
-60
-60
-58
-58
-60
-63
-67
-64
-64
-61
-62
-65
-61
-60
-60
-61
-62
-64
-63
-60
-56
-56
-58
-59
-59
-57
-51
-54
-55
-58
-55
-54
-55
-53
-46
-31
-3
30
67
104
141
175
207
229
244
247
233
207
187
173
158
138
112
79
53
39
29
12
-9
-25
-36
-46
-56
-66
-76
-84
-84
-87
-90
-93
-96
-97
-95
-92
-93
-95
-95
-96
-93
-89
-89
-89
-91
-93
-92
-89
-87
-91
-92
-94
-92
-89
-89
-87
-89
-91
-92
-89
-88
-89
-89
-91
-93
-92
-90
-90
-93
-94
-90
-92
-91
-92
-92
-93
-93
-89
-88
-88
-89
-89
-89
-85
-83
-82
-82
-83
-76
-72
-70
-66
-64
-64
-60
-55
-51
-49
-48
-47
-46
-43
-38
-35
-35
-32
-29
-26
-23
-24
-25
-28
-26
-27
-28
-28
-31
-34
-34
-33
-35
-37
-40
-41
-41
-41
-42
-44
-48
-51
-50
-48
-49
-49
-49
-53
-51
-50
-49
-50
-51
-55
-53
-54
-57
-53
-54
-56
-55
-55
-52
-54
-55
-58
-54
-55
-54
-55
-56
-56
-57
-54
-54
-53
-55
-59
-54
-52
-52
-53
-55
-59
-56
-52
-50
-53
-54
-57
-57
-55
-51
-53
-55
-57
-58
-56
-55
-54
-53
-56
-54
-52
-53
-52
-50
-52
-53
-51
-51
-47
-44
-42
-35
-30
-30
-34
-35
-41
-39
-34
-27
-23
-24
-20
-20
-16
-12
-12
-14
-18
-19
-18
-18
-21
-26
-33
-40
-48
-55
-63
-66
-68
-67
-65
-66
-65
-69
-71
-66
-65
-64
-65
-63
-67
-65
-63
-65
-64
-64
-64
-62
-59
-60
-60
-59
-63
-60
-57
-56
-58
-62
-60
-51
-32
-6
23
58
94
130
162
189
206
221
234
246
232
208
180
156
129
103
75
51
35
20
2
-16
-30
-43
-55
-66
-76
-84
-86
-88
-93
-97
-100
-105
-104
-102
-100
-103
-105
-105
-102
-100
-98
-99
-101
-100
-98
-96
-98
-100
-98
-98
-97
-96
-98
-96
-99
-99
-97
-96
-96
-96
-101
-102
-99
-97
-97
-99
-102
-104
-99
-100
-97
-98
-99
-100
-97
-97
-98
-100
-99
-96
-96
-95
-95
-95
-97
-92
-89
-85
-86
-85
-84
-79
-76
-75
-73
-72
-71
-67
-61
-57
-55
-53
-51
-48
-43
-39
-36
-35
-39
-36
-36
-31
-31
-33
-36
-36
-40
-42
-44
-44
-46
-45
-47
-50
-52
-54
-56
-54
-54
-54
-56
-60
-62
-61
-57
-58
-60
-66
-68
-66
-62
-60
-62
-64
-67
-66
-64
-65
-66
-66
-71
-69
-69
-69
-67
-69
-70
-69
-67
-66
-67
-68
-68
-67
-69
-66
-68
-71
-71
-69
-66
-69
-67
-67
-68
-69
-67
-65
-66
-67
-70
-68
-67
-63
-62
-67
-69
-68
-67
-67
-67
-69
-71
-68
-66
-64
-65
-66
-68
-67
-66
-65
-65
-65
-61
-57
-50
-48
-48
-50
-52
-48
-41
-36
-35
-35
-36
-32
-29
-27
-26
-27
-30
-32
-34
-32
-33
-36
-46
-54
-63
-71
-73
-78
-81
-79
-78
-79
-78
-78
-80
-78
-77
-76
-75
-79
-81
-78
-76
-72
-73
-73
-76
-74
-72
-69
-69
-70
-73
-70
-71
-70
-71
-72
-70
-57
-37
-6
32
66
103
143
180
208
227
235
225
200
175
157
139
126
99
66
36
19
4
-13
-34
-50
-62
-69
-82
-93
-102
-102
-102
-103
-107
-110
-113
-113
-109
-108
-108
-109
-112
-109
-107
-101
-103
-105
-106
-107
-104
-103
-101
-102
-103
-103
-102
-103
-104
-106
-106
-105
-105
-104
-107
-110
-110
-108
-104
-102
-104
-106
-107
-106
-105
-105
-104
-106
-107
-108
-106
-104
-102
-105
-106
-102
-100
-96
-96
-95
-93
-88
-85
-81
-78
-75
-76
-73
-71
-68
-66
-65
-61
-56
-51
-47
-43
-44
-46
-42
-42
-39
-41
-42
-43
-44
-45
-45
-48
-50
-50
-52
-53
-51
-54
-56
-57
-58
-57
-59
-58
-60
-62
-64
-59
-57
-58
-60
-64
-61
-60
-62
-62
-65
-65
-62
-63
-61
-62
-61
-63
-61
-63
-61
-61
-62
-63
-62
-62
-61
-62
-62
-62
-59
-57
-59
-59
-63
-65
-63
-59
-58
-59
-61
-63
-62
-61
-59
-59
-61
-65
-65
-64
-63
-61
-61
-64
-62
-59
-59
-58
-59
-61
-60
-58
-58
-58
-59
-64
-64
-59
-54
-57
-54
-54
-53
-47
-44
-39
-41
-43
-44
-39
-36
-32
-29
-28
-28
-23
-20
-16
-15
-19
-22
-22
-22
-22
-25
-25
-28
-34
-45
-54
-63
-69
-67
-68
-68
-73
-74
-75
-71
-67
-66
-68
-69
-71
-69
-68
-67
-66
-66
-66
-69
-64
-62
-63
-63
-64
-63
-61
-65
-63
-65
-60
-48
-29
-3
24
54
79
112
145
176
204
222
233
229
211
182
157
135
107
79
55
39
23
4
-18
-35
-45
-54
-61
-69
-78
-85
-91
-94
-96
-103
-108
-106
-104
-104
-101
-105
-107
-104
-103
-99
-98
-99
-99
-99
-100
-100
-101
-102
-103
-103
-100
-98
-100
-101
-102
-103
-99
-102
-103
-103
-108
-105
-101
-100
-103
-103
-104
-103
-102
-98
-103
-103
-104
-103
-98
-99
-103
-101
-103
-100
-95
-94
-91
-91
-90
-89
-86
-83
-80
-77
-77
-75
-72
-67
-68
-63
-59
-56
-51
-46
-46
-44
-46
-38
-35
-34
-36
-37
-38
-36
-36
-34
-37
-39
-42
-43
-42
-44
-46
-49
-52
-52
-52
-51
-52
-53
-57
-56
-55
-53
-55
-56
-59
-58
-58
-57
-60
-62
-62
-61
-57
-58
-58
-61
-61
-61
-59
-61
-64
-63
-63
-62
-63
-60
-60
-63
-63
-63
-61
-60
-60
-63
-65
-64
-61
-62
-58
-60
-60
-58
-58
-57
-58
-58
-60
-62
-61
-61
-57
-62
-61
-59
-58
-57
-62
-59
-61
-59
-62
-60
-59
-60
-61
-57
-54
-54
-54
-57
-59
-53
-48
-41
-37
-36
-39
-42
-39
-34
-31
-30
-27
-26
-22
-20
-18
-16
-19
-20
-19
-19
-22
-25
-27
-30
-34
-40
-52
-60
-68
-70
-70
-70
-71
-73
-73
-70
-68
-66
-67
-68
-69
-68
-67
-64
-66
-67
-70
-68
-64
-62
-61
-62
-65
-65
-63
-62
-64
-68
-73
-67
-57
-43
-30
-5
23
61
101
139
174
203
225
241
235
210
181
151
129
105
75
52
36
22
9
-9
-22
-32
-43
-55
-70
-80
-85
-89
-92
-96
-101
-100
-98
-99
-99
-100
-101
-98
-96
-95
-96
-99
-101
-100
-97
-94
-95
-97
-99
-98
-96
-97
-97
-97
-100
-101
-98
-97
-95
-97
-102
-99
-98
-98
-97
-98
-100
-100
-100
-99
-99
-100
-103
-100
-98
-96
-96
-94
-95
-93
-89
-88
-87
-88
-84
-82
-77
-73
-68
-69
-67
-63
-59
-55
-52
-50
-48
-41
-38
-34
-34
-36
-39
-38
-35
-33
-34
-37
-40
-40
-40
-39
-41
-46
-49
-51
-48
-48
-51
-53
-56
-57
-55
-54
-54
-56
-59
-60
-60
-60
-61
-63
-63
-64
-63
-62
-63
-66
-65
-65
-64
-63
-64
-64
-64
-65
-64
-65
-66
-67
-67
-63
-61
-61
-64
-66
-71
-69
-63
-61
-61
-65
-67
-67
-64
-64
-64
-66
-65
-66
-64
-62
-61
-63
-66
-65
-62
-63
-63
-63
-65
-64
-61
-58
-60
-58
-61
-60
-60
-60
-61
-61
-57
-50
-46
-43
-43
-46
-52
-47
-41
-37
-33
-33
-34
-27
-22
-19
-21
-23
-29
-30
-28
-30
-29
-34
-44
-52
-62
-68
-69
-74
-76
-75
-75
-74
-76
-75
-77
-73
-72
-69
-69
-69
-73
-73
-71
-68
-70
-69
-69
-65
-65
-64
-63
-63
-65
-64
-64
-62
-62
-54
-33
-1
35
74
113
153
184
211
231
232
218
187
159
145
134
117
92
56
27
10
-1
-18
-35
-53
-65
-74
-82
-86
-91
-92
-97
-98
-99
-99
-100
-100
-102
-102
-101
-99
-99
-100
-101
-100
-97
-95
-94
-96
-96
-98
-97
-94
-93
-95
-100
-97
-95
-94
-96
-98
-98
-98
-98
-98
-96
-101
-102
-100
-100
-100
-103
-102
-102
-98
-95
-94
-96
-99
-100
-98
-94
-91
-92
-91
-93
-89
-86
-80
-80
-81
-82
-77
-72
-66
-64
-63
-63
-59
-56
-52
-50
-46
-45
-41
-39
-35
-35
-34
-37
-36
-35
-33
-36
-36
-40
-39
-39
-41
-44
-46
-49
-48
-46
-45
-49
-51
-51
-50
-51
-51
-55
-56
-57
-55
-53
-53
-55
-57
-59
-59
-59
-56
-57
-59
-62
-61
-57
-55
-58
-59
-59
-58
-58
-57
-55
-57
-58
-57
-55
-54
-54
-57
-60
-60
-57
-55
-58
-58
-61
-57
-58
-55
-57
-59
-61
-57
-55
-55
-54
-56
-59
-58
-55
-53
-54
-57
-58
-56
-53
-52
-52
-54
-55
-54
-50
-49
-48
-45
-43
-38
-35
-32
-34
-39
-39
-31
-23
-20
-16
-15
-16
-14
-12
-15
-17
-22
-27
-22
-23
-26
-37
-49
-60
-66
-67
-65
-67
-67
-67
-66
-63
-64
-64
-64
-65
-64
-61
-61
-61
-62
-60
-58
-57
-57
-59
-59
-61
-58
-55
-58
-57
-54
-43
-18
13
40
70
106
146
189
218
235
238
227
192
162
140
116
83
50
30
20
8
-9
-25
-38
-52
-61
-69
-76
-81
-89
-94
-97
-96
-92
-93
-95
-97
-93
-90
-91
-90
-90
-94
-92
-92
-90
-88
-89
-94
-92
-90
-89
-87
-92
-94
-93
-92
-87
-89
-92
-92
-91
-94
-92
-93
-93
-95
-93
-93
-93
-92
-95
-96
-95
-91
-92
-90
-89
-88
-85
-82
-80
-81
-80
-79
-76
-71
-67
-66
-63
-63
-57
-52
-48
-46
-45
-42
-35
-30
-27
-30
-32
-29
-29
-26
-27
-26
-29
-32
-30
-32
-30
-34
-38
-41
-38
-40
-39
-39
-39
-42
-45
-43
-43
-44
-48
-49
-48
-47
-45
-47
-46
-50
-50
-51
-52
-54
-54
-59
-60
-58
-56
-55
-55
-54
-51
-50
-44
-37
-30
-16
5
23
46
75
104
133
156
179
210
239
268
291
316
339
354
353
318
259
194
143
92
36
-16
-59
-86
-102
-107
-112
-117
-120
-118
-115
-114
-117
-117
-121
-117
-117
-116
-118
-121
-125
-127
-126
-129
-130
-135
-141
-142
-140
-134
-128
-127
-127
-126
-126
-127
-127
-123
-125
-122
-120
-119
-118
-118
-123
-125
-126
-118
-121
-122
-125
-126
-125
-123
-123
-126
-127
-127
-127
-126
-124
-125
-122
-121
-120
-115
-115
-113
-113
-109
-105
-101
-98
-99
-97
-94
-87
-84
-80
-77
-75
-69
-63
-57
-55
-56
-55
-50
-49
-47
-43
-45
-45
-45
-42
-41
-42
-41
-45
-44
-41
-39
-41
-41
-44
-45
-44
-42
-40
-42
-42
-43
-42
-40
-42
-41
-44
-42
-43
-41
-41
-43
-45
-45
-43
-44
-45
-47
-50
-50
-47
-44
-43
-45
-49
-50
-48
-49
-49
-51
-55
-50
-49
-48
-50
-53
-55
-52
-50
-49
-50
-52
-54
-54
-54
-55
-54
-54
-58
-53
-51
-51
-52
-56
-55
-55
-54
-51
-52
-54
-58
-55
-52
-52
-52
-55
-56
-56
-54
-54
-52
-56
-58
-57
-55
-54
-54
-54
-58
-54
-54
-56
-56
-56
-58
-55
-52
-52
-54
-54
-57
-53
-54
-51
-51
-54
-55
-55
-53
-53
-54
-55
-57
-59
-57
-52
-50
-55
-56
-55
-56
-51
-51
-53
-56
-55
-53
-52
-55
-54
-55
-56
-52
-52
-53
-53
-53
-49
-47
-47
-50
-54
-56
-55
-52
-50
-50
-52
-53
-54
-50
-48
-52
-52
-56
-54
-53
-51
-51
-52
-53
-53
-50
-52
-53
-54
-55
-51
-50
-49
-52
-51
-53
-51
-51
-51
-53
-51
-53
-52
-49
-44
-44
-45
-42
-39
-34
-32
-30
-36
-35
-32
-25
-20
-20
-20
-21
-19
-17
-16
-16
-14
-16
-18
-19
-21
-20
-22
-32
-36
-45
-55
-62
-64
-63
-63
-62
-60
-63
-66
-67
-64
-63
-63
-63
-65
-66
-67
-63
-62
-60
-60
-59
-59
-58
-53
-55
-59
-61
-60
-60
-59
-54
-45
-26
6
40
74
111
151
182
211
230
243
236
212
179
157
142
128
101
69
40
22
7
-12
-33
-50
-64
-74
-80
-86
-92
-94
-99
-104
-104
-107
-102
-105
-106
-108
-106
-102
-102
-102
-101
-102
-103
-100
-101
-99
-102
-99
-100
-97
-101
-102
-104
-102
-102
-95
-98
-99
-102
-101
-97
-98
-97
-97
-99
-98
-94
-94
-92
-93
-95
-93
-90
-90
-90
-91
-92
-87
-84
-80
-81
-82
-80
-75
-70
-64
-64
-64
-66
-58
-54
-51
-49
-47
-46
-42
-36
-33
-29
-27
-27
-24
-21
-18
-16
-16
-16
-11
-8
-8
-7
-9
-11
-11
-9
-14
-14
-17
-19
-20
-20
-22
-25
-29
-34
-35
-35
-36
-38
-40
-45
-45
-45
-46
-48
-50
-52
-55
-56
-56
-56
-57
-61
-60
-60
-60
-62
-64
-63
-64
-62
-65
-69
-67
-65
-64
-64
-64
-66
-66
-70
-66
-65
-65
-66
-68
-69
-69
-66
-65
-69
-69
-69
-69
-65
-66
-67
-67
-69
-67
-65
-63
-65
-64
-64
-64
-64
-64
-65
-65
-65
-63
-61
-62
-64
-64
-67
-65
-63
-60
-62
-63
-62
-61
-55
-52
-50
-48
-47
-47
-46
-44
-41
-37
-36
-35
-29
-29
-27
-24
-23
-20
-19
-20
-21
-27
-28
-32
-27
-30
-37
-46
-58
-64
-66
-67
-68
-72
-77
-76
-75
-72
-72
-74
-75
-74
-74
-75
-72
-71
-74
-71
-70
-68
-68
-67
-69
-69
-64
-64
-63
-68
-68
-68
-67
-67
-68
-66
-62
-46
-18
12
43
76
112
147
182
203
222
231
236
227
204
173
148
128
105
74
42
22
8
-5
-23
-39
-51
-59
-67
-78
-85
-92
-93
-97
-101
-104
-108
-108
-108
-109
-106
-108
-108
-108
-103
-102
-102
-104
-106
-107
-106
-102
-101
-104
-107
-102
-102
-100
-100
-104
-105
-105
-98
-97
-100
-101
-102
-103
-101
-100
-101
-105
-107
-104
-104
-106
-103
-104
-104
-102
-101
-101
-100
-101
-104
-102
-99
-95
-95
-96
-98
-96
-95
-91
-91
-90
-86
-84
-80
-77
-74
-75
-76
-70
-65
-61
-60
-56
-59
-54
-51
-46
-45
-43
-46
-41
-40
-41
-42
-43
-43
-44
-44
-45
-46
-51
-51
-51
-49
-49
-50
-55
-59
-57
-57
-55
-56
-58
-63
-61
-60
-58
-59
-59
-60
-59
-56
-55
-57
-58
-61
-60
-58
-60
-61
-60
-62
-60
-58
-59
-58
-59
-60
-58
-57
-56
-56
-58
-59
-59
-58
-57
-57
-58
-61
-61
-58
-58
-58
-60
-61
-62
-57
-59
-60
-58
-59
-56
-57
-56
-58
-59
-58
-56
-57
-59
-60
-60
-60
-57
-54
-54
-54
-57
-60
-60
-61
-60
-58
-56
-57
-53
-49
-46
-42
-38
-39
-37
-39
-39
-38
-33
-32
-26
-21
-20
-20
-20
-18
-17
-16
-17
-18
-23
-24
-28
-28
-36
-44
-54
-65
-70
-68
-67
-69
-71
-75
-73
-70
-67
-67
-68
-72
-70
-69
-67
-66
-67
-69
-68
-66
-64
-65
-65
-66
-66
-63
-63
-62
-63
-66
-68
-68
-62
-55
-42
-18
16
53
94
136
169
193
217
232
242
239
216
188
168
152
135
108
76
49
35
23
8
-13
-34
-51
-61
-66
-75
-85
-92
-96
-97
-100
-102
-108
-107
-110
-109
-107
-107
-106
-110
-110
-107
-105
-103
-104
-105
-107
-105
-102
-101
-100
-102
-106
-101
-104
-101
-103
-106
-108
-105
-104
-102
-103
-104
-106
-103
-102
-103
-107
-108
-108
-107
-101
-102
-104
-105
-109
-109
-105
-101
-100
-101
-104
-102
-100
-97
-96
-95
-94
-89
-87
-82
-83
-82
-83
-78
-74
-71
-70
-69
-67
-60
-57
-50
-49
-50
-49
-45
-41
-35
-34
-34
-35
-34
-32
-36
-34
-37
-40
-40
-40
-40
-40
-44
-44
-46
-47
-47
-51
-50
-53
-53
-49
-49
-53
-57
-59
-60
-56
-57
-57
-60
-62
-60
-59
-58
-61
-63
-64
-59
-57
-56
-58
-62
-63
-63
-62
-62
-65
-62
-67
-64
-60
-59
-64
-66
-67
-66
-62
-64
-63
-67
-66
-64
-61
-61
-61
-64
-66
-66
-64
-60
-62
-63
-65
-60
-60
-60
-62
-63
-65
-65
-58
-58
-61
-60
-63
-63
-59
-57
-58
-61
-60
-58
-54
-51
-48
-43
-43
-42
-41
-41
-42
-41
-38
-31
-27
-25
-23
-23
-23
-21
-20
-22
-24
-26
-29
-28
-27
-34
-44
-57
-69
-72
-72
-71
-72
-73
-76
-76
-73
-70
-70
-72
-74
-72
-69
-69
-71
-71
-72
-70
-69
-69
-68
-67
-65
-66
-65
-66
-69
-70
-72
-69
-63
-50
-28
-2
32
72
111
152
188
212
231
242
235
208
180
152
125
95
64
42
28
19
6
-13
-28
-41
-52
-66
-78
-89
-95
-98
-100
-106
-105
-107
-106
-105
-105
-105
-107
-106
-107
-104
-102
-105
-106
-103
-101
-100
-102
-103
-106
-103
-99
-99
-100
-101
-102
-100
-100
-98
-101
-104
-105
-107
-102
-100
-101
-102
-107
-106
-104
-102
-99
-101
-106
-103
-102
-100
-100
-103
-102
-99
-98
-94
-92
-93
-91
-90
-87
-81
-80
-79
-77
-71
-64
-62
-65
-64
-61
-57
-52
-49
-43
-44
-44
-41
-36
-35
-33
-33
-37
-37
-37
-39
-38
-42
-42
-41
-41
-43
-44
-47
-50
-47
-50
-48
-50
-53
-56
-56
-56
-58
-58
-58
-57
-58
-58
-58
-57
-58
-60
-59
-59
-59
-63
-63
-69
-68
-62
-60
-61
-62
-63
-61
-59
-59
-62
-63
-66
-67
-63
-61
-62
-62
-64
-64
-63
-59
-62
-63
-63
-62
-63
-61
-61
-63
-64
-65
-59
-61
-60
-61
-62
-61
-58
-58
-61
-63
-66
-62
-61
-60
-61
-61
-63
-59
-59
-57
-56
-56
-59
-52
-47
-44
-42
-45
-47
-47
-42
-38
-34
-31
-30
-28
-20
-20
-16
-18
-22
-24
-26
-26
-27
-27
-36
-40
-50
-60
-67
-72
-74
-73
-72
-71
-71
-71
-74
-73
-71
-69
-70
-71
-71
-70
-68
-69
-69
-69
-69
-69
-65
-64
-65
-69
-72
-72
-72
-67
-58
-46
-23
7
40
80
123
161
194
218
231
227
199
167
140
119
95
64
32
17
3
-13
-30
-49
-59
-71
-84
-89
-92
-96
-97
-102
-103
-105
-103
-101
-102
-103
-105
-101
-97
-97
-100
-99
-101
-97
-95
-95
-97
-96
-95
-95
-96
-94
-96
-99
-99
-96
-92
-92
-95
-97
-98
-98
-96
-96
-96
-98
-99
-99
-96
-94
-93
-96
-98
-95
-94
-94
-94
-93
-95
-92
-88
-89
-85
-84
-81
-78
-75
-73
-72
-70
-66
-61
-56
-53
-49
-46
-44
-40
-38
-33
-33
-33
-36
-35
-33
-33
-34
-35
-40
-39
-41
-40
-42
-45
-46
-44
-47
-48
-47
-49
-52
-51
-50
-53
-53
-53
-55
-55
-56
-56
-58
-59
-61
-59
-56
-56
-57
-58
-61
-57
-55
-56
-56
-58
-60
-57
-56
-55
-55
-57
-57
-56
-55
-54
-58
-58
-59
-59
-55
-55
-56
-58
-58
-57
-56
-55
-56
-58
-60
-59
-56
-56
-56
-60
-61
-62
-57
-52
-54
-57
-59
-57
-58
-54
-52
-57
-60
-59
-55
-50
-48
-46
-42
-37
-34
-34
-35
-37
-36
-32
-28
-22
-23
-23
-21
-16
-12
-13
-15
-18
-21
-20
-21
-26
-33
-45
-55
-61
-65
-65
-66
-69
-71
-73
-69
-68
-67
-71
-74
-71
-67
-68
-67
-69
-70
-68
-62
-62
-61
-60
-65
-62
-64
-61
-63
-67
-70
-67
-57
-40
-16
14
44
79
121
160
193
219
236
242
227
198
166
139
120
90
62
42
29
13
-6
-25
-37
-46
-57
-71
-86
-92
-93
-96
-100
-103
-106
-104
-101
-98
-100
-103
-106
-104
-103
-103
-101
-100
-101
-102
-100
-97
-97
-100
-102
-103
-98
-98
-99
-97
-100
-100
-96
-99
-100
-103
-104
-99
-100
-101
-100
-104
-102
-100
-99
-99
-100
-102
-103
-101
-98
-98
-95
-96
-98
-95
-93
-88
-85
-85
-84
-79
-74
-73
-68
-70
-69
-63
-55
-50
-47
-46
-47
-43
-39
-35
-36
-36
-37
-36
-32
-32
-32
-35
-38
-39
-36
-37
-40
-42
-45
-44
-44
-45
-49
-53
-53
-53
-51
-49
-51
-52
-54
-56
-55
-53
-55
-57
-58
-58
-54
-54
-55
-56
-59
-58
-58
-58
-60
-59
-63
-61
-59
-58
-57
-59
-61
-62
-61
-59
-62
-64
-65
-63
-61
-62
-61
-62
-63
-66
-61
-61
-61
-60
-60
-61
-59
-58
-58
-60
-62
-62
-58
-57
-59
-60
-63
-62
-60
-59
-58
-61
-62
-61
-62
-60
-56
-58
-61
-56
-55
-52
-52
-50
-47
-44
-42
-40
-40
-40
-43
-40
-31
-24
-22
-25
-25
-23
-18
-15
-17
-19
-25
-26
-24
-27
-29
-41
-52
-59
-65
-69
-70
-72
-74
-74
-71
-68
-74
-72
-72
-70
-67
-68
-68
-70
-71
-68
-65
-66
-66
-67
-69
-67
-62
-58
-59
-62
-67
-66
-67
-59
-44
-26
2
34
73
113
147
176
198
217
236
243
229
201
172
149
126
95
57
34
17
5
-13
-29
-44
-57
-68
-78
-86
-91
-93
-94
-101
-104
-102
-101
-101
-102
-104
-106
-104
-100
-100
-102
-104
-99
-99
-97
-97
-98
-98
-100
-97
-97
-98
-97
-100
-99
-97
-95
-96
-98
-101
-99
-98
-97
-99
-102
-102
-103
-97
-97
-98
-101
-103
-102
-98
-95
-97
-98
-99
-98
-96
-92
-91
-90
-90
-88
-86
-83
-81
-83
-82
-76
-72
-67
-66
-64
-65
-62
-57
-54
-50
-50
-45
-42
-38
-34
-33
-35
-38
-35
-31
-29
-32
-36
-41
-42
-41
-37
-38
-42
-46
-48
-47
-48
-47
-51
-53
-53
-55
-53
-53
-55
-56
-57
-54
-54
-55
-58
-60
-58
-55
-55
-57
-58
-59
-58
-58
-58
-56
-60
-63
-61
-58
-55
-56
-58
-61
-58
-56
-53
-53
-57
-59
-60
-62
-55
-55
-57
-58
-59
-60
-59
-59
-61
-62
-58
-59
-60
-61
-59
-63
-62
-60
-59
-59
-61
-60
-60
-59
-57
-57
-56
-53
-50
-50
-51
-50
-50
-49
-46
-43
-41
-39
-36
-34
-28
-25
-26
-26
-27
-23
-17
-14
-9
-7
-9
-7
-6
-5
-5
-8
-11
-13
-13
-17
-22
-33
-43
-53
-60
-56
-55
-61
-64
-63
-58
-58
-57
-59
-60
-65
-60
-57
-56
-58
-58
-59
-58
-53
-52
-52
-53
-53
-53
-49
-53
-56
-57
-59
-48
-25
7
42
80
120
160
195
221
238
248
242
220
187
162
139
118
91
62
41
26
9
-12
-30
-43
-52
-61
-71
-77
-83
-84
-87
-88
-89
-91
-95
-99
-99
-96
-93
-90
-92
-89
-88
-88
-86
-88
-92
-90
-89
-92
-90
-91
-91
-93
-92
-93
-93
-89
-94
-92
-91
-88
-90
-91
-91
-88
-89
-87
-92
-95
-97
-94
-92
-91
-90
-93
-97
-94
-92
-89
-88
-89
-89
-86
-83
-81
-81
-80
-79
-77
-74
-68
-67
-63
-63
-61
-57
-50
-48
-47
-45
-39
-37
-31
-29
-29
-31
-31
-25
-25
-26
-27
-30
-28
-27
-25
-28
-31
-37
-36
-33
-33
-38
-38
-40
-40
-39
-41
-43
-46
-43
-38
-37
-39
-43
-45
-47
-48
-50
-50
-50
-51
-52
-49
-46
-46
-44
-40
-38
-31
-18
1
17
33
58
85
119
150
171
191
212
241
272
300
325
344
356
354
323
264
200
148
105
59
15
-25
-60
-86
-105
-113
-119
-122
-127
-128
-130
-128
-126
-126
-128
-126
-130
-129
-128
-130
-129
-133
-139
-142
-143
-146
-152
-155
-158
-157
-155
-150
-144
-146
-148
-152
-151
-148
-146
-141
-137
-132
-126
-122
-120
-119
-122
-123
-125
-124
-123
-124
-128
-128
-127
-125
-127
-127
-130
-129
-129
-130
-127
-126
-125
-126
-125
-122
-125
-124
-122
-116
-115
-112
-108
-106
-107
-101
-94
-90
-87
-85
-84
-77
-71
-67
-64
-62
-59
-53
-49
-43
-46
-44
-45
-44
-40
-40
-35
-38
-41
-39
-38
-37
-35
-37
-37
-37
-35
-35
-39
-40
-40
-37
-37
-35
-39
-40
-43
-39
-39
-38
-41
-42
-45
-42
-41
-38
-41
-41
-44
-42
-42
-42
-41
-44
-46
-47
-44
-42
-42
-44
-48
-49
-49
-49
-52
-52
-53
-51
-51
-48
-49
-51
-55
-56
-56
-53
-53
-55
-57
-55
-53
-51
-51
-55
-57
-56
-54
-49
-49
-52
-53
-55
-53
-53
-53
-55
-56
-58
-56
-53
-58
-55
-57
-56
-55
-55
-56
-56
-60
-57
-56
-58
-57
-59
-62
-62
-60
-60
-60
-60
-65
-63
-61
-59
-60
-60
-64
-63
-62
-60
-62
-60
-60
-62
-61
-61
-61
-60
-61
-60
-62
-58
-59
-57
-59
-57
-58
-53
-55
-55
-60
-58
-56
-55
-55
-58
-60
-59
-58
-55
-59
-59
-61
-60
-57
-58
-60
-61
-66
-62
-60
-60
-62
-60
-62
-65
-62
-61
-62
-62
-66
-64
-62
-63
-63
-64
-66
-62
-61
-58
-61
-61
-66
-65
-64
-58
-57
-62
-64
-62
-61
-55
-60
-58
-60
-58
-54
-48
-44
-41
-40
-37
-37
-39
-43
-40
-34
-26
-24
-23
-25
-25
-23
-19
-17
-19
-23
-24
-25
-24
-26
-29
-31
-40
-51
-62
-66
-67
-69
-73
-74
-75
-74
-73
-74
-74
-75
-73
-71
-68
-67
-68
-71
-68
-69
-65
-66
-66
-68
-68
-64
-63
-67
-69
-70
-64
-55
-42
-20
8
44
87
126
165
194
217
234
245
232
203
170
147
131
114
91
63
39
25
9
-9
-30
-43
-54
-67
-79
-88
-92
-93
-96
-100
-104
-108
-105
-104
-103
-106
-106
-106
-102
-102
-103
-103
-103
-103
-101
-99
-97
-99
-100
-100
-98
-98
-97
-99
-101
-100
-99
-96
-98
-98
-101
-100
-100
-97
-97
-97
-99
-98
-96
-94
-94
-94
-95
-96
-93
-91
-91
-89
-88
-84
-81
-79
-76
-77
-78
-73
-73
-69
-67
-62
-63
-57
-57
-54
-51
-51
-50
-45
-44
-39
-36
-32
-32
-31
-27
-22
-21
-23
-21
-18
-15
-16
-15
-18
-18
-18
-19
-23
-24
-27
-29
-30
-29
-31
-35
-38
-42
-42
-44
-44
-48
-53
-55
-57
-55
-54
-56
-60
-62
-63
-62
-66
-64
-65
-70
-67
-70
-71
-74
-75
-77
-75
-76
-72
-74
-77
-78
-76
-76
-77
-78
-79
-82
-80
-79
-75
-78
-80
-82
-80
-79
-80
-78
-80
-81
-79
-77
-73
-74
-79
-83
-80
-78
-76
-77
-82
-84
-79
-78
-77
-76
-79
-81
-78
-76
-75
-76
-77
-79
-77
-73
-74
-76
-74
-77
-72
-69
-64
-61
-61
-60
-58
-56
-56
-56
-54
-52
-48
-43
-37
-37
-36
-35
-33
-31
-29
-33
-39
-41
-44
-45
-48
-56
-64
-75
-84
-88
-89
-88
-86
-86
-86
-82
-82
-84
-85
-88
-84
-79
-81
-83
-83
-82
-82
-78
-78
-77
-79
-79
-80
-79
-78
-76
-75
-75
-75
-78
-78
-79
-73
-61
-35
-4
31
69
106
144
177
207
228
236
228
204
176
157
139
118
88
56
30
16
8
-8
-28
-48
-59
-70
-79
-89
-97
-104
-108
-109
-110
-114
-114
-117
-116
-116
-119
-118
-115
-119
-117
-113
-112
-111
-112
-111
-111
-110
-111
-111
-112
-111
-111
-110
-107
-109
-109
-112
-111
-109
-107
-109
-112
-113
-113
-109
-107
-106
-109
-112
-111
-110
-107
-107
-112
-113
-109
-109
-108
-109
-109
-107
-107
-104
-102
-103
-103
-103
-99
-95
-90
-90
-93
-94
-91
-86
-82
-79
-80
-77
-74
-70
-66
-62
-60
-60
-56
-54
-52
-51
-52
-51
-49
-47
-49
-49
-52
-55
-55
-52
-54
-56
-59
-62
-61
-58
-57
-61
-66
-70
-67
-67
-62
-62
-64
-69
-66
-63
-62
-65
-68
-67
-66
-65
-63
-64
-66
-65
-64
-64
-67
-65
-65
-69
-67
-65
-66
-68
-68
-68
-68
-67
-65
-67
-67
-67
-68
-63
-65
-64
-66
-71
-70
-67
-65
-65
-68
-68
-69
-65
-66
-66
-67
-68
-65
-64
-63
-64
-66
-69
-66
-66
-66
-63
-64
-64
-62
-60
-60
-61
-60
-62
-58
-53
-48
-45
-41
-44
-45
-44
-39
-39
-35
-34
-30
-23
-18
-16
-19
-19
-21
-19
-21
-24
-24
-29
-32
-39
-45
-54
-63
-70
-70
-70
-70
-70
-70
-72
-69
-67
-67
-67
-66
-66
-64
-61
-61
-60
-63
-64
-63
-60
-57
-56
-56
-60
-59
-57
-60
-62
-64
-66
-55
-35
-9
22
53
86
121
159
191
216
231
230
218
193
167
147
128
107
77
49
33
23
10
-8
-23
-31
-42
-52
-66
-78
-83
-87
-89
-92
-96
-99
-98
-96
-94
-98
-99
-98
-96
-94
-94
-93
-93
-95
-96
-94
-93
-92
-92
-95
-92
-92
-91
-91
-93
-95
-93
-92
-95
-95
-98
-98
-95
-91
-91
-90
-94
-97
-96
-95
-94
-93
-94
-95
-93
-96
-92
-94
-93
-95
-93
-92
-87
-85
-84
-84
-81
-77
-75
-78
-76
-75
-72
-69
-62
-61
-59
-59
-57
-52
-51
-45
-45
-45
-40
-36
-33
-31
-31
-29
-27
-27
-27
-26
-28
-31
-30
-28
-29
-31
-33
-38
-37
-36
-38
-39
-40
-44
-42
-41
-39
-41
-43
-46
-47
-46
-45
-44
-46
-47
-50
-49
-50
-46
-47
-50
-50
-51
-50
-51
-50
-51
-50
-48
-48
-50
-50
-52
-49
-48
-48
-49
-50
-50
-48
-45
-46
-47
-50
-48
-50
-48
-49
-51
-51
-56
-55
-50
-48
-51
-53
-54
-52
-51
-49
-51
-55
-57
-54
-53
-51
-53
-53
-55
-55
-54
-52
-50
-51
-47
-46
-41
-35
-32
-28
-28
-24
-24
-26
-25
-21
-17
-12
-7
-6
-3
-5
-4
1
1
-3
-2
-6
-10
-9
-14
-24
-35
-46
-55
-54
-50
-51
-53
-52
-52
-52
-47
-47
-47
-49
-51
-49
-48
-48
-48
-48
-49
-46
-44
-46
-49
-50
-50
-48
-51
-51
-53
-56
-56
-43
-24
5
37
71
104
143
179
212
236
254
252
233
206
182
160
135
104
78
60
53
39
22
0
-15
-30
-41
-55
-63
-72
-76
-77
-81
-84
-86
-87
-85
-84
-87
-90
-87
-87
-86
-82
-79
-78
-78
-80
-76
-74
-75
-75
-78
-78
-75
-74
-75
-76
-80
-84
-81
-78
-76
-77
-75
-78
-77
-77
-79
-82
-84
-84
-79
-80
-78
-78
-80
-78
-73
-76
-80
-82
-82
-78
-74
-69
-68
-72
-72
-73
-64
-57
-50
-50
-50
-50
-44
-38
-37
-42
-44
-40
-35
-31
-32
-32
-30
-28
-22
-18
-17
-22
-23
-25
-23
-23
-26
-28
-30
-29
-25
-27
-28
-33
-38
-39
-40
-37
-35
-37
-40
-44
-42
-41
-39
-38
-38
-41
-42
-42
-40
-38
-39
-42
-45
-44
-40
-38
-37
-37
-39
-39
-40
-38
-39
-35
-34
-36
-39
-46
-47
-48
-46
-42
-40
-42
-43
-45
-46
-42
-43
-42
-45
-47
-45
-41
-40
-43
-47
-46
-44
-45
-47
-47
-47
-47
-45
-45
-45
-42
-45
-42
-43
-42
-42
-44
-45
-47
-45
-41
-40
-37
-33
-29
-24
-22
-23
-25
-26
-21
-18
-12
-8
-8
-4
-3
0
-1
-2
-6
-10
-9
-15
-16
-25
-34
-47
-54
-56
-54
-55
-57
-60
-64
-64
-62
-61
-57
-56
-60
-58
-59
-57
-56
-56
-58
-58
-57
-55
-54
-53
-50
-51
-50
-53
-53
-55
-46
-34
-4
34
71
113
156
195
227
255
268
256
230
205
183
157
131
101
72
50
37
20
-4
-24
-40
-52
-64
-69
-76
-81
-87
-89
-90
-87
-88
-89
-94
-92
-89
-85
-85
-86
-86
-84
-81
-82
-83
-84
-87
-84
-83
-79
-79
-81
-81
-80
-82
-85
-85
-86
-85
-81
-78
-76
-78
-80
-81
-78
-79
-79
-81
-81
-84
-82
-81
-78
-79
-80
-82
-78
-72
-68
-67
-68
-70
-67
-61
-59
-60
-59
-57
-49
-44
-41
-37
-39
-39
-34
-27
-23
-20
-16
-18
-15
-18
-16
-14
-12
-14
-15
-16
-18
-18
-21
-28
-29
-32
-33
-31
-32
-35
-32
-31
-35
-39
-40
-42
-38
-37
-37
-39
-41
-40
-39
-34
-30
-29
-33
-38
-39
-36
-34
-34
-35
-37
-40
-35
-30
-31
-35
-40
-40
-37
-35
-35
-38
-40
-41
-41
-38
-37
-38
-40
-41
-42
-41
-42
-42
-43
-45
-46
-43
-42
-40
-44
-42
-41
-41
-42
-46
-49
-44
-40
-37
-44
-47
-47
-46
-43
-42
-41
-41
-37
-35
-29
-25
-23
-27
-34
-34
-30
-27
-24
-21
-19
-12
-5
-1
-1
-4
-11
-11
-11
-12
-16
-22
-31
-40
-46
-53
-55
-58
-62
-60
-58
-57
-56
-54
-57
-54
-51
-50
-52
-58
-59
-55
-49
-49
-52
-54
-53
-47
-46
-46
-49
-48
-53
-55
-57
-53
-43
-25
5
38
74
106
141
176
207
234
252
253
232
200
173
153
134
105
71
45
31
17
1
-14
-27
-39
-51
-61
-70
-78
-85
-90
-97
-99
-103
-104
-104
-101
-99
-96
-93
-95
-98
-97
-99
-99
-96
-99
-98
-99
-100
-97
-98
-97
-99
-99
-98
-97
-96
-94
-91
-90
-92
-89
-87
-84
-85
-85
-89
-89
-88
-88
-87
-94
-94
-92
-86
-85
-87
-90
-90
-92
-89
-88
-88
-92
-93
-90
-84
-82
-82
-79
-80
-78
-76
-77
-75
-72
-67
-62
-63
-62
-62
-59
-56
-56
-50
-51
-52
-55
-57
-57
-55
-58
-56
-56
-59
-61
-59
-61
-61
-61
-61
-58
-57
-59
-61
-63
-63
-57
-55
-55
-58
-59
-57
-52
-49
-51
-54
-54
-57
-56
-56
-54
-55
-60
-60
-59
-56
-54
-53
-58
-58
-57
-55
-56
-60
-65
-66
-64
-63
-65
-65
-68
-68
-68
-68
-66
-68
-70
-68
-66
-67
-65
-68
-72
-72
-73
-69
-64
-65
-67
-69
-68
-66
-63
-64
-63
-62
-60
-56
-50
-47
-45
-49
-50
-48
-47
-40
-35
-32
-26
-23
-15
-14
-15
-15
-16
-19
-22
-24
-26
-30
-33
-41
-52
-63
-68
-68
-67
-67
-66
-67
-68
-70
-68
-65
-66
-64
-66
-69
-68
-68
-65
-61
-60
-62
-63
-61
-60
-58
-63
-67
-72
-68
-62
-52
-31
-6
28
62
98
141
182
212
232
239
218
180
150
126
107
83
55
35
22
9
-6
-19
-34
-47
-58
-68
-74
-78
-79
-86
-89
-93
-94
-91
-93
-93
-95
-100
-99
-97
-95
-94
-91
-92
-90
-88
-91
-90
-88
-89
-85
-85
-84
-84
-83
-83
-77
-78
-79
-79
-79
-82
-83
-80
-80
-82
-84
-86
-86
-86
-87
-86
-90
-88
-88
-85
-82
-86
-86
-84
-82
-81
-77
-74
-76
-76
-71
-65
-62
-64
-62
-61
-58
-54
-51
-50
-47
-44
-40
-40
-38
-35
-35
-36
-35
-35
-32
-31
-31
-33
-32
-31
-35
-37
-39
-41
-40
-35
-36
-38
-37
-40
-40
-39
-39
-39
-41
-44
-41
-41
-41
-42
-42
-42
-43
-42
-43
-42
-45
-47
-46
-45
-42
-44
-46
-48
-47
-42
-46
-42
-43
-45
-45
-43
-42
-44
-42
-45
-45
-45
-42
-44
-45
-44
-45
-41
-40
-41
-46
-46
-44
-42
-41
-43
-46
-46
-45
-46
-45
-47
-47
-47
-44
-42
-42
-40
-43
-44
-41
-41
-39
-41
-40
-43
-42
-37
-34
-29
-25
-23
-19
-16
-18
-22
-22
-19
-12
-8
-8
-8
-9
-8
-4
-1
-1
-5
-7
-8
-10
-10
-14
-20
-28
-40
-50
-58
-59
-62
-63
-64
-65
-63
-62
-64
-66
-67
-66
-64
-63
-62
-64
-63
-62
-59
-61
-60
-61
-63
-62
-56
-57
-55
-58
-61
-62
-63
-62
-60
-49
-30
-4
29
65
104
145
178
209
231
248
250
233
200
177
163
147
127
98
67
45
31
19
-1
-21
-40
-51
-60
-71
-82
-90
-94
-99
-100
-103
-106
-109
-111
-110
-107
-108
-106
-109
-109
-107
-104
-102
-103
-105
-108
-107
-104
-102
-101
-103
-106
-104
-103
-103
-104
-105
-107
-103
-103
-106
-102
-105
-105
-101
-99
-103
-107
-105
-107
-105
-102
-98
-100
-103
-105
-101
-98
-99
-97
-99
-99
-96
-93
-92
-86
-83
-84
-80
-76
-75
-74
-74
-73
-73
-68
-65
-64
-61
-61
-57
-51
-48
-47
-45
-45
-41
-37
-35
-34
-36
-36
-35
-34
-35
-36
-35
-42
-41
-40
-44
-44
-48
-49
-49
-48
-51
-51
-54
-57
-59
-55
-56
-57
-59
-61
-60
-59
-56
-59
-61
-62
-62
-63
-62
-63
-63
-64
-66
-66
-66
-64
-68
-68
-66
-68
-66
-66
-69
-70
-70
-68
-67
-68
-70
-70
-67
-66
-65
-65
-68
-70
-69
-70
-66
-67
-69
-69
-69
-66
-65
-64
-67
-68
-66
-65
-64
-65
-67
-65
-63
-64
-61
-63
-64
-64
-62
-60
-59
-60
-63
-64
-66
-61
-59
-60
-60
-59
-55
-53
-49
-46
-44
-44
-43
-44
-42
-37
-38
-32
-29
-23
-22
-26
-26
-25
-22
-22
-24
-28
-31
-33
-33
-37
-45
-55
-63
-71
-74
-74
-78
-78
-80
-80
-78
-75
-76
-76
-80
-78
-77
-74
-73
-72
-74
-74
-75
-71
-69
-68
-68
-69
-68
-69
-65
-68
-71
-70
-71
-70
-65
-59
-43
-16
19
61
101
140
174
200
226
241
246
239
213
185
158
138
108
76
45
23
11
-1
-18
-38
-54
-67
-74
-83
-90
-97
-102
-105
-107
-108
-109
-111
-112
-113
-113
-110
-110
-109
-109
-111
-110
-108
-106
-108
-106
-106
-104
-104
-105
-105
-110
-109
-108
-105
-103
-105
-109
-108
-107
-105
-103
-102
-105
-107
-108
-106
-103
-103
-108
-107
-106
-105
-104
-103
-103
-102
-101
-96
-97
-96
-95
-94
-92
-86
-84
-84
-86
-88
-83
-78
-74
-69
-69
-66
-62
-57
-55
-52
-50
-50
-45
-43
-40
-41
-42
-44
-42
-42
-42
-44
-44
-48
-49
-48
-48
-55
-55
-58
-58
-54
-58
-59
-60
-61
-61
-60
-60
-58
-63
-66
-67
-65
-63
-62
-66
-68
-66
-66
-65
-63
-67
-71
-69
-68
-68
-68
-68
-68
-67
-67
-67
-70
-73
-74
-70
-70
-69
-69
-71
-70
-67
-67
-63
-67
-68
-69
-69
-67
-69
-67
-67
-69
-68
-67
-65
-62
-68
-67
-64
-65
-66
-66
-65
-67
-65
-65
-63
-64
-66
-69
-64
-63
-62
-62
-62
-64
-63
-57
-53
-51
-51
-51
-47
-48
-46
-48
-42
-40
-38
-35
-32
-30
-27
-30
-25
-22
-23
-29
-31
-34
-33
-29
-34
-41
-52
-63
-68
-70
-72
-72
-73
-76
-72
-72
-73
-72
-74
-75
-71
-72
-71
-70
-70
-68
-66
-67
-66
-64
-63
-64
-66
-62
-61
-59
-59
-63
-63
-61
-57
-50
-41
-15
15
49
85
121
156
184
209
226
239
240
231
205
179
157
141
121
94
61
38
25
14
-4
-25
-42
-53
-59
-66
-75
-82
-85
-86
-87
-90
-92
-95
-97
-96
-96
-94
-93
-91
-92
-91
-89
-88
-89
-91
-93
-90
-88
-88
-88
-91
-94
-91
-88
-87
-89
-91
-92
-93
-87
-88
-89
-91
-91
-89
-91
-92
-89
-90
-94
-93
-91
-90
-89
-90
-92
-91
-90
-87
-89
-91
-90
-88
-86
-83
-81
-82
-80
-74
-72
-69
-69
-69
-67
-64
-56
-53
-50
-51
-49
-41
-37
-33
-30
-30
-31
-31
-30
-30
-30
-32
-36
-34
-33
-34
-34
-39
-40
-41
-42
-44
-43
-48
-47
-45
-46
-48
-48
-49
-47
-47
-47
-46
-51
-55
-55
-51
-49
-49
-49
-49
-53
-53
-50
-51
-51
-54
-56
-54
-53
-50
-52
-53
-55
-55
-52
-53
-54
-56
-56
-55
-50
-51
-52
-54
-55
-54
-56
-52
-53
-55
-56
-51
-50
-48
-49
-55
-57
-54
-51
-49
-51
-51
-54
-50
-48
-45
-48
-52
-51
-48
-43
-47
-46
-47
-50
-47
-45
-42
-38
-36
-32
-29
-26
-25
-29
-29
-29
-24
-21
-17
-11
-12
-12
-8
-4
-8
-10
-14
-17
-15
-15
-17
-24
-37
-46
-54
-58
-56
-59
-60
-64
-63
-60
-60
-61
-62
-61
-59
-57
-56
-57
-58
-56
-56
-53
-54
-53
-55
-54
-50
-48
-49
-50
-53
-56
-56
-54
-44
-29
-7
21
59
93
130
166
192
212
231
247
253
236
205
173
150
129
102
72
51
37
23
7
-10
-25
-39
-50
-59
-66
-73
-80
-83
-89
-90
-92
-92
-91
-93
-92
-92
-92
-90
-88
-91
-90
-87
-85
-83
-83
-85
-88
-88
-85
-85
-85
-85
-84
-84
-84
-83
-84
-87
-86
-86
-84
-83
-85
-84
-86
-82
-82
-80
-83
-85
-87
-85
-83
-83
-80
-82
-85
-81
-80
-75
-78
-77
-77
-73
-68
-66
-65
-64
-62
-59
-56
-51
-51
-52
-46
-41
-39
-37
-34
-30
-29
-25
-20
-20
-20
-21
-22
-18
-16
-15
-17
-19
-23
-21
-21
-19
-20
-25
-29
-29
-29
-31
-32
-35
-36
-37
-34
-35
-35
-38
-40
-40
-37
-38
-41
-44
-45
-42
-41
-43
-42
-45
-47
-46
-45
-45
-48
-46
-49
-48
-46
-47
-51
-52
-54
-54
-52
-50
-52
-54
-54
-52
-50
-49
-50
-51
-54
-52
-50
-49
-48
-49
-52
-51
-48
-46
-48
-52
-53
-50
-48
-48
-47
-49
-48
-43
-42
-43
-45
-50
-52
-50
-47
-45
-48
-50
-49
-49
-44
-37
-36
-33
-34
-31
-30
-30
-28
-24
-21
-18
-14
-12
-9
-8
-5
-4
-4
-5
-11
-16
-18
-17
-22
-28
-38
-50
-58
-60
-58
-58
-61
-61
-63
-63
-60
-59
-60
-58
-59
-56
-56
-55
-57
-57
-57
-52
-50
-50
-52
-52
-51
-50
-49
-48
-52
-52
-50
-36
-9
21
53
87
128
169
205
229
244
254
248
229
205
179
152
125
89
58
39
26
12
-5
-24
-35
-45
-55
-67
-74
-81
-81
-83
-84
-87
-90
-92
-90
-90
-89
-91
-89
-90
-88
-89
-89
-89
-89
-86
-85
-86
-85
-86
-85
-90
-87
-88
-85
-85
-86
-87
-87
-85
-83
-85
-86
-91
-88
-84
-85
-82
-85
-86
-87
-87
-83
-82
-82
-85
-85
-83
-82
-81
-79
-77
-73
-74
-74
-73
-71
-70
-68
-64
-60
-60
-58
-56
-51
-45
-43
-40
-40
-40
-35
-29
-24
-24
-25
-27
-24
-21
-18
-21
-23
-26
-26
-23
-24
-25
-26
-32
-32
-32
-36
-37
-39
-41
-40
-38
-37
-38
-42
-46
-46
-42
-46
-45
-48
-49
-47
-46
-45
-49
-50
-51
-51
-47
-45
-50
-51
-54
-54
-51
-49
-50
-52
-55
-56
-53
-52
-51
-51
-54
-52
-51
-47
-51
-53
-53
-53
-49
-49
-49
-51
-50
-49
-45
-45
-48
-50
-50
-49
-47
-47
-47
-49
-49
-46
-44
-44
-42
-46
-46
-47
-46
-46
-45
-45
-46
-44
-39
-37
-33
-31
-30
-28
-26
-27
-27
-28
-24
-17
-12
-11
-7
-5
-4
-1
-2
-1
-5
-7
-11
-10
-8
-14
-26
-37
-46
-49
-48
-48
-52
-53
-54
-50
-48
-47
-48
-49
-50
-48
-46
-45
-45
-45
-44
-44
-39
-37
-38
-38
-42
-40
-38
-38
-35
-27
-2
31
71
112
155
192
223
249
262
263
246
215
182
158
142
115
83
53
34
20
2
-15
-31
-43
-53
-58
-61
-65
-68
-70
-76
-77
-78
-77
-77
-76
-78
-76
-76
-76
-73
-74
-76
-73
-75
-76
-76
-76
-77
-74
-74
-74
-78
-76
-78
-75
-75
-77
-73
-74
-77
-75
-74
-75
-75
-76
-76
-74
-72
-74
-76
-77
-77
-75
-73
-70
-69
-72
-71
-71
-66
-64
-63
-61
-59
-56
-52
-49
-49
-46
-45
-39
-35
-31
-30
-26
-26
-21
-17
-13
-13
-13
-19
-16
-13
-14
-15
-19
-22
-23
-22
-23
-22
-27
-28
-29
-29
-31
-31
-33
-36
-35
-35
-35
-37
-36
-37
-39
-36
-34
-38
-40
-39
-39
-39
-37
-39
-41
-40
-39
-37
-37
-39
-40
-42
-41
-43
-39
-39
-43
-42
-42
-40
-38
-43
-44
-43
-40
-41
-39
-39
-40
-44
-41
-41
-40
-41
-42
-41
-39
-36
-38
-40
-42
-42
-41
-40
-39
-35
-36
-38
-35
-33
-33
-36
-34
-38
-36
-36
-34
-31
-32
-27
-25
-19
-17
-17
-18
-22
-17
-11
-8
-4
-6
-6
-2
2
4
5
2
0
-1
-2
-4
-8
-16
-21
-31
-38
-45
-49
-51
-54
-51
-49
-45
-50
-51
-53
-50
-48
-44
-45
-49
-51
-49
-47
-44
-46
-45
-45
-45
-42
-42
-42
-42
-44
-46
-42
-37
-21
0
30
64
104
144
181
212
235
258
268
262
233
201
180
157
136
105
73
52
34
17
-3
-19
-34
-50
-61
-67
-72
-74
-79
-83
-88
-85
-84
-82
-85
-86
-88
-84
-82
-82
-85
-85
-87
-83
-81
-79
-77
-78
-81
-80
-80
-81
-80
-79
-82
-82
-78
-80
-80
-80
-82
-82
-80
-79
-78
-78
-80
-80
-80
-79
-79
-80
-79
-77
-74
-73
-72
-74
-72
-70
-68
-63
-62
-59
-57
-54
-47
-45
-44
-44
-43
-38
-33
-30
-27
-23
-21
-17
-14
-11
-13
-14
-17
-14
-13
-10
-12
-16
-18
-18
-17
-19
-18
-21
-25
-27
-27
-27
-31
-30
-33
-33
-32
-32
-36
-38
-40
-37
-34
-33
-37
-37
-41
-36
-34
-36
-37
-39
-41
-37
-37
-37
-37
-38
-38
-38
-37
-38
-39
-40
-40
-37
-37
-36
-37
-38
-39
-37
-35
-35
-34
-38
-39
-39
-36
-35
-38
-40
-41
-39
-37
-36
-36
-36
-37
-37
-35
-36
-35
-35
-37
-33
-32
-32
-36
-36
-36
-34
-33
-32
-32
-34
-34
-30
-22
-16
-12
-12
-16
-15
-16
-13
-9
-6
-4
-1
2
4
3
5
7
8
6
5
3
-1
-3
-8
-14
-24
-36
-42
-45
-45
-44
-46
-49
-50
-50
-45
-46
-46
-47
-48
-49
-47
-44
-42
-43
-43
-43
-40
-35
-37
-38
-37
-38
-35
-36
-38
-37
-36
-36
-26
-6
21
56
93
134
176
214
242
263
272
263
242
218
195
174
158
132
102
75
57
44
26
5
-10
-23
-32
-45
-58
-69
-70
-73
-76
-77
-80
-83
-82
-84
-83
-82
-81
-82
-78
-78
-80
-81
-84
-81
-80
-75
-76
-79
-80
-80
-75
-73
-72
-73
-78
-80
-79
-78
-78
-79
-81
-81
-80
-79
-74
-76
-80
-78
-79
-80
-76
-76
-78
-80
-78
-75
-74
-77
-77
-76
-73
-70
-69
-67
-67
-64
-59
-57
-53
-51
-50
-47
-44
-38
-33
-34
-32
-29
-23
-21
-16
-13
-13
-13
-11
-8
-5
-7
-8
-9
-8
-9
-11
-14
-16
-17
-19
-18
-18
-20
-25
-25
-25
-24
-28
-29
-30
-32
-33
-29
-33
-34
-34
-34
-33
-32
-31
-34
-36
-35
-37
-35
-34
-32
-33
-37
-37
-37
-36
-36
-37
-38
-36
-35
-36
-34
-35
-35
-37
-37
-36
-37
-36
-37
-34
-33
-33
-34
-38
-36
-33
-31
-30
-30
-32
-34
-34
-31
-30
-33
-35
-36
-33
-32
-29
-33
-32
-34
-33
-33
-30
-31
-30
-30
-28
-21
-18
-14
-14
-17
-13
-12
-7
-3
0
-1
4
6
9
9
9
8
7
4
2
-1
-2
-5
-13
-20
-32
-40
-44
-48
-43
-38
-38
-39
-41
-45
-41
-39
-41
-42
-42
-42
-41
-39
-40
-38
-38
-41
-36
-36
-34
-33
-36
-36
-35
-34
-34
-36
-26
-4
28
62
99
140
175
210
240
261
268
259
233
204
183
171
154
126
92
61
45
34
18
2
-21
-30
-40
-48
-54
-61
-64
-68
-70
-72
-72
-74
-76
-78
-75
-74
-72
-73
-72
-72
-70
-70
-73
-72
-72
-71
-70
-68
-68
-69
-70
-74
-68
-68
-65
-69
-74
-74
-73
-71
-70
-72
-71
-73
-69
-69
-72
-73
-75
-74
-73
-72
-72
-72
-73
-73
-70
-67
-68
-65
-67
-68
-65
-63
-58
-55
-55
-56
-52
-49
-45
-45
-43
-40
-36
-32
-30
-29
-26
-23
-18
-15
-14
-14
-14
-14
-11
-8
-10
-11
-13
-13
-14
-11
-12
-16
-17
-19
-21
-22
-20
-22
-24
-27
-27
-27
-29
-31
-32
-34
-34
-30
-32
-34
-34
-35
-33
-33
-32
-32
-36
-34
-35
-35
-34
-33
-37
-41
-40
-37
-35
-35
-36
-35
-34
-37
-35
-35
-37
-38
-36
-35
-36
-35
-38
-37
-36
-32
-33
-36
-39
-38
-38
-34
-32
-31
-35
-38
-37
-36
-33
-34
-38
-40
-37
-33
-34
-33
-35
-35
-33
-32
-32
-34
-36
-33
-32
-32
-31
-30
-29
-25
-23
-19
-17
-18
-22
-21
-13
-6
-3
-4
-2
-2
2
7
9
9
8
3
3
3
1
0
-6
-16
-25
-33
-39
-42
-42
-43
-44
-43
-42
-44
-44
-45
-44
-42
-40
-40
-39
-42
-40
-39
-38
-39
-40
-37
-38
-38
-35
-37
-37
-41
-40
-36
-30
-18
5
38
76
115
154
193
222
241
254
261
251
220
190
166
153
142
118
86
58
41
31
17
1
-16
-28
-35
-43
-50
-53
-54
-56
-58
-62
-63
-66
-66
-66
-65
-66
-64
-64
-64
-66
-64
-62
-60
-60
-60
-63
-66
-63
-61
-60
-60
-62
-66
-64
-60
-61
-63
-63
-66
-65
-62
-64
-65
-68
-69
-67
-64
-66
-66
-65
-66
-66
-69
-66
-68
-68
-68
-66
-63
-62
-63
-61
-61
-56
-53
-50
-50
-52
-50
-48
-40
-38
-39
-37
-34
-29
-22
-18
-16
-14
-14
-11
-6
-3
0
-5
-5
-3
-1
-1
-4
-5
-6
-5
-5
-7
-10
-14
-14
-16
-16
-16
-19
-24
-26
-21
-18
-17
-22
-25
-29
-31
-26
-25
-26
-28
-29
-26
-22
-23
-23
-23
-26
-25
-27
-22
-24
-23
-25
-26
-26
-28
-27
-29
-28
-31
-30
-30
-29
-28
-24
-21
-18
-18
-16
-10
-3
11
29
46
62
81
106
137
168
193
216
243
278
315
348
375
390
393
383
347
291
235
189
147
104
60
17
-23
-52
-70
-74
-75
-73
-73
-73
-74
-77
-75
-72
-67
-67
-67
-70
-70
-72
-74
-76
-76
-82
-85
-88
-89
-90
-89
-87
-88
-96
-101
-110
-114
-116
-113
-110
-111
-113
-113
-117
-116
-111
-113
-113
-115
-115
-116
-115
-114
-114
-114
-118
-120
-118
-121
-120
-120
-118
-117
-114
-113
-118
-113
-114
-115
-109
-108
-108
-109
-110
-105
-100
-96
-96
-95
-93
-89
-86
-81
-80
-79
-78
-72
-66
-61
-59
-60
-58
-53
-50
-43
-40
-40
-42
-38
-34
-32
-33
-34
-37
-34
-30
-31
-30
-34
-34
-32
-29
-29
-29
-30
-33
-30
-28
-29
-30
-31
-29
-28
-27
-26
-29
-31
-32
-28
-29
-29
-29
-31
-32
-29
-26
-25
-26
-28
-28
-27
-23
-23
-24
-27
-31
-30
-26
-24
-28
-30
-32
-26
-24
-27
-28
-30
-31
-32
-31
-30
-31
-32
-31
-28
-26
-25
-28
-30
-33
-31
-30
-29
-32
-32
-34
-34
-30
-27
-27
-29
-29
-30
-29
-26
-25
-26
-30
-32
-27
-29
-27
-33
-34
-31
-27
-27
-27
-30
-33
-28
-27
-26
-26
-29
-31
-30
-25
-26
-27
-26
-27
-29
-30
-29
-28
-29
-29
-29
-25
-25
-24
-28
-29
-28
-24
-26
-28
-32
-32
-31
-30
-27
-29
-29
-29
-27
-27
-27
-27
-26
-29
-28
-27
-25
-25
-30
-29
-25
-26
-27
-26
-26
-28
-27
-24
-24
-24
-28
-32
-31
-27
-29
-28
-31
-31
-27
-26
-26
-26
-26
-31
-27
-26
-27
-27
-28
-27
-25
-23
-23
-18
-16
-15
-8
-2
-1
-1
-5
-7
-4
3
7
6
7
5
8
12
17
18
15
12
13
13
14
8
2
-2
-8
-14
-22
-31
-37
-40
-37
-38
-37
-40
-39
-42
-41
-38
-38
-39
-40
-39
-33
-32
-32
-33
-35
-37
-32
-29
-30
-32
-30
-32
-31
-29
-30
-30
-27
-21
-8
10
39
72
106
145
177
211
234
251
267
280
281
259
222
187
170
150
129
103
76
56
38
20
3
-11
-20
-33
-44
-55
-62
-64
-64
-66
-71
-76
-76
-76
-74
-76
-79
-80
-77
-75
-74
-75
-74
-76
-72
-73
-69
-70
-74
-73
-70
-68
-67
-69
-74
-74
-72
-71
-68
-70
-70
-72
-71
-71
-69
-69
-69
-69
-68
-69
-68
-70
-71
-72
-69
-66
-64
-66
-68
-70
-67
-65
-60
-61
-57
-57
-55
-52
-50
-49
-48
-46
-43
-38
-35
-36
-32
-27
-20
-16
-14
-12
-16
-10
-4
1
4
4
4
7
12
16
17
18
18
15
15
17
20
17
12
9
10
10
7
5
2
-3
-4
-6
-8
-11
-14
-18
-17
-18
-22
-28
-27
-27
-27
-26
-29
-32
-35
-35
-32
-31
-33
-33
-36
-35
-37
-36
-32
-31
-38
-39
-38
-35
-35
-36
-37
-38
-37
-36
-36
-37
-39
-40
-42
-39
-36
-38
-38
-39
-34
-36
-36
-36
-40
-39
-38
-37
-34
-32
-33
-36
-35
-34
-32
-31
-33
-36
-33
-32
-31
-31
-33
-31
-30
-27
-23
-19
-16
-16
-10
-6
-7
-9
-7
-4
-1
2
3
7
7
10
11
12
12
9
5
4
2
-1
-8
-20
-30
-36
-41
-43
-45
-47
-51
-55
-53
-52
-49
-47
-50
-50
-47
-43
-45
-47
-47
-50
-44
-42
-38
-39
-41
-42
-40
-38
-39
-43
-47
-47
-44
-38
-23
3
34
70
107
148
184
217
240
258
269
266
237
207
183
157
137
111
82
59
42
25
9
-8
-22
-39
-53
-63
-68
-68
-71
-74
-81
-85
-82
-81
-81
-80
-82
-82
-80
-79
-79
-80
-81
-78
-76
-75
-74
-78
-78
-77
-75
-75
-77
-77
-77
-77
-76
-74
-74
-75
-76
-79
-77
-77
-75
-75
-78
-79
-75
-75
-74
-75
-77
-78
-77
-78
-75
-72
-73
-71
-71
-70
-71
-68
-68
-64
-61
-61
-62
-64
-65
-62
-54
-47
-42
-41
-44
-44
-36
-32
-27
-25
-24
-25
-23
-18
-16
-17
-20
-21
-20
-18
-17
-20
-23
-25
-26
-25
-28
-28
-30
-34
-35
-38
-38
-37
-37
-37
-37
-35
-35
-37
-39
-39
-37
-35
-37
-36
-41
-41
-39
-36
-36
-37
-38
-36
-35
-34
-35
-37
-40
-41
-37
-35
-33
-35
-35
-38
-37
-35
-33
-34
-35
-38
-37
-36
-34
-37
-36
-38
-34
-35
-37
-37
-38
-40
-37
-36
-35
-37
-39
-40
-39
-39
-39
-39
-39
-40
-39
-38
-38
-39
-41
-39
-35
-30
-27
-25
-21
-18
-13
-13
-13
-17
-15
-13
-8
-1
6
3
4
4
3
2
1
-4
-7
-12
-13
-18
-31
-42
-53
-57
-57
-56
-56
-57
-59
-61
-56
-54
-53
-53
-54
-56
-54
-52
-50
-49
-53
-52
-48
-43
-40
-45
-47
-50
-49
-53
-51
-53
-49
-37
-12
25
63
103
141
182
216
243
262
262
239
207
184
162
136
98
69
50
36
21
1
-18
-33
-49
-62
-67
-67
-72
-78
-87
-86
-85
-87
-89
-88
-91
-89
-84
-85
-86
-87
-87
-84
-81
-83
-82
-92
-90
-89
-83
-84
-84
-84
-84
-87
-86
-87
-89
-88
-86
-81
-80
-80
-83
-90
-88
-90
-85
-85
-86
-87
-90
-85
-83
-82
-80
-79
-79
-74
-75
-71
-71
-68
-63
-62
-59
-54
-53
-51
-48
-43
-37
-35
-33
-30
-28
-25
-17
-17
-14
-14
-16
-15
-14
-13
-15
-19
-20
-18
-18
-18
-21
-24
-28
-29
-31
-33
-34
-36
-44
-41
-39
-39
-40
-41
-41
-41
-36
-37
-41
-47
-49
-46
-43
-41
-41
-43
-43
-40
-40
-42
-42
-43
-44
-42
-41
-41
-45
-43
-44
-43
-41
-42
-45
-46
-46
-45
-45
-46
-46
-47
-49
-51
-48
-47
-44
-45
-45
-48
-45
-45
-47
-50
-51
-49
-46
-44
-46
-47
-48
-46
-44
-44
-45
-45
-46
-47
-43
-41
-36
-34
-27
-21
-20
-21
-25
-23
-20
-14
-8
-10
-11
-7
-3
2
2
-2
-8
-10
-11
-10
-13
-18
-28
-43
-52
-58
-58
-60
-61
-62
-65
-61
-60
-58
-60
-61
-61
-57
-60
-59
-61
-64
-61
-57
-56
-57
-58
-58
-58
-55
-53
-58
-62
-66
-65
-55
-39
-11
18
51
91
132
170
200
222
242
248
237
215
190
162
137
100
72
54
42
26
6
-17
-32
-45
-55
-64
-75
-82
-85
-90
-94
-95
-101
-101
-102
-100
-95
-92
-94
-96
-94
-93
-93
-92
-91
-92
-91
-91
-92
-88
-89
-90
-89
-86
-88
-92
-92
-93
-88
-89
-90
-90
-93
-95
-94
-93
-92
-94
-95
-94
-94
-92
-92
-94
-96
-94
-91
-86
-85
-85
-83
-83
-81
-77
-76
-74
-73
-69
-63
-57
-54
-53
-52
-51
-49
-43
-41
-39
-37
-35
-32
-32
-30
-31
-32
-33
-32
-33
-33
-36
-34
-37
-36
-38
-39
-42
-46
-48
-45
-41
-42
-46
-47
-47
-47
-47
-47
-50
-52
-52
-50
-49
-51
-55
-53
-56
-52
-53
-52
-54
-55
-55
-55
-56
-53
-51
-52
-53
-56
-51
-53
-54
-54
-54
-54
-51
-52
-53
-54
-55
-54
-54
-57
-57
-59
-59
-58
-57
-56
-58
-58
-60
-56
-55
-56
-56
-58
-60
-58
-57
-55
-58
-63
-61
-62
-57
-56
-56
-60
-60
-57
-51
-48
-44
-45
-43
-43
-42
-43
-41
-36
-30
-26
-22
-22
-19
-17
-18
-17
-16
-18
-24
-25
-28
-29
-34
-43
-54
-65
-71
-70
-68
-68
-70
-72
-74
-71
-67
-64
-65
-69
-68
-64
-63
-65
-68
-68
-66
-65
-63
-62
-60
-63
-64
-63
-65
-69
-74
-73
-61
-39
-9
24
56
92
133
171
206
230
241
235
217
190
170
150
123
91
62
44
36
25
9
-12
-31
-46
-55
-67
-80
-87
-93
-98
-99
-100
-104
-106
-107
-105
-103
-104
-106
-104
-106
-103
-100
-101
-103
-101
-101
-99
-97
-98
-99
-101
-101
-99
-96
-95
-97
-98
-100
-99
-96
-98
-100
-100
-101
-101
-99
-98
-98
-101
-102
-99
-94
-91
-93
-94
-95
-93
-93
-93
-89
-87
-87
-79
-74
-68
-65
-61
-62
-58
-56
-52
-49
-45
-43
-39
-35
-33
-32
-33
-30
-28
-26
-27
-28
-28
-29
-30
-30
-31
-33
-39
-41
-42
-40
-40
-40
-42
-44
-42
-41
-44
-47
-49
-50
-50
-49
-49
-49
-49
-52
-50
-49
-47
-48
-47
-49
-45
-44
-45
-48
-49
-52
-48
-47
-48
-51
-51
-51
-49
-45
-47
-48
-48
-45
-38
-36
-41
-48
-54
-55
-53
-49
-50
-48
-50
-53
-51
-51
-54
-55
-53
-54
-51
-50
-51
-54
-56
-59
-58
-55
-53
-50
-53
-52
-51
-47
-43
-36
-33
-32
-31
-31
-34
-31
-28
-21
-11
-7
-3
4
11
11
11
7
2
0
-5
-9
-9
-13
-16
-28
-41
-51
-53
-51
-50
-51
-55
-58
-56
-53
-54
-54
-58
-57
-56
-54
-53
-54
-54
-55
-53
-50
-51
-51
-49
-48
-46
-49
-54
-55
-58
-55
-38
-15
15
42
70
101
138
174
206
227
239
241
224
198
173
153
134
111
81
62
49
32
17
-2
-18
-28
-42
-52
-60
-70
-74
-78
-82
-86
-88
-91
-90
-88
-90
-89
-89
-88
-86
-85
-86
-87
-88
-88
-87
-86
-87
-88
-89
-91
-86
-84
-79
-81
-84
-87
-86
-83
-81
-83
-86
-86
-87
-86
-83
-85
-85
-87
-86
-85
-85
-85
-89
-91
-88
-88
-90
-88
-88
-89
-86
-82
-83
-83
-84
-85
-81
-79
-74
-71
-73
-73
-68
-64
-61
-57
-54
-52
-47
-43
-43
-42
-40
-36
-32
-30
-31
-31
-32
-31
-28
-25
-24
-29
-31
-33
-32
-31
-33
-37
-38
-39
-36
-37
-37
-37
-42
-44
-43
-45
-44
-46
-48
-51
-51
-46
-47
-49
-48
-48
-48
-46
-50
-49
-48
-50
-48
-47
-46
-49
-46
-45
-40
-40
-40
-40
-43
-39
-38
-36
-33
-37
-38
-39
-36
-34
-32
-35
-35
-38
-38
-34
-35
-36
-40
-42
-40
-37
-37
-37
-37
-37
-36
-34
-33
-35
-36
-36
-36
-36
-37
-38
-38
-39
-38
-38
-37
-36
-36
-33
-28
-23
-23
-21
-21
-22
-20
-16
-13
-12
-11
-11
-5
4
6
3
-1
-4
-4
-3
-2
-9
-15
-19
-30
-38
-45
-52
-53
-55
-55
-57
-57
-58
-59
-58
-55
-50
-52
-54
-54
-56
-57
-53
-54
-56
-57
-56
-50
-46
-43
-43
-48
-51
-53
-52
-54
-57
-55
-49
-36
-13
15
47
84
123
162
195
220
241
254
252
233
204
178
156
134
108
78
59
47
37
18
-2
-16
-26
-37
-48
-66
-75
-76
-75
-81
-86
-91
-91
-89
-85
-88
-91
-93
-91
-89
-87
-89
-90
-92
-92
-88
-89
-85
-88
-89
-89
-85
-84
-84
-83
-84
-85
-86
-81
-80
-81
-86
-87
-86
-85
-86
-87
-89
-87
-87
-85
-87
-86
-91
-91
-87
-85
-82
-84
-84
-82
-78
-76
-75
-75
-74
-71
-66
-59
-57
-57
-56
-60
-57
-54
-49
-46
-45
-44
-41
-36
-36
-35
-32
-28
-25
-22
-21
-22
-26
-28
-25
-24
-25
-27
-29
-30
-29
-31
-33
-34
-37
-40
-41
-41
-40
-42
-44
-48
-45
-42
-42
-42
-44
-47
-49
-47
-47
-48
-51
-52
-52
-52
-55
-57
-57
-61
-58
-55
-57
-59
-61
-64
-62
-59
-59
-61
-64
-67
-65
-62
-64
-66
-67
-68
-65
-60
-62
-61
-62
-63
-60
-62
-60
-61
-62
-59
-59
-56
-57
-55
-57
-57
-52
-50
-51
-51
-55
-56
-54
-52
-53
-52
-54
-56
-56
-54
-53
-52
-53
-53
-54
-51
-54
-56
-55
-51
-44
-43
-43
-43
-44
-47
-47
-43
-40
-36
-32
-34
-28
-22
-21
-20
-18
-21
-21
-22
-24
-28
-28
-32
-33
-41
-49
-59
-66
-71
-69
-70
-70
-72
-72
-73
-72
-72
-73
-72
-71
-70
-68
-67
-68
-66
-70
-70
-66
-65
-62
-66
-66
-65
-64
-61
-67
-68
-68
-61
-43
-13
24
61
96
137
173
202
225
244
257
249
226
197
169
150
125
92
56
27
15
5
-10
-29
-43
-56
-63
-72
-81
-88
-89
-91
-95
-95
-100
-107
-107
-97
-95
-90
-86
-82
-80
-81
-79
-77
-74
-77
-78
-80
-72
-66
-70
-75
-72
-68
-66
-68
-68
-72
-67
-65
-65
-68
-68
-70
-67
-61
-63
-67
-73
-71
-71
-67
-67
-69
-69
-74
-74
-71
-71
-70
-67
-65
-62
-59
-58
-57
-53
-55
-48
-42
-41
-43
-42
-41
-36
-30
-28
-27
-28
-26
-21
-18
-14
-14
-12
-15
-13
-12
-8
-10
-16
-17
-15
-14
-16
-18
-20
-20
-20
-19
-22
-23
-30
-28
-25
-25
-26
-29
-33
-33
-29
-27
-28
-29
-28
-30
-30
-31
-31
-33
-36
-36
-34
-34
-36
-41
-39
-38
-34
-34
-36
-38
-42
-42
-37
-35
-35
-40
-45
-45
-42
-42
-44
-46
-48
-49
-51
-49
-51
-49
-49
-48
-47
-49
-49
-50
-55
-56
-55
-54
-52
-52
-51
-50
-50
-48
-48
-47
-49
-47
-49
-48
-50
-51
-53
-55
-52
-47
-46
-46
-48
-50
-50
-43
-39
-38
-39
-39
-38
-36
-36
-36
-34
-30
-23
-17
-15
-15
-17
-14
-12
-12
-18
-23
-23
-23
-22
-22
-31
-43
-57
-60
-61
-61
-65
-65
-67
-66
-65
-64
-67
-71
-70
-69
-67
-65
-68
-71
-71
-69
-65
-65
-63
-63
-64
-63
-55
-52
-54
-57
-59
-59
-54
-48
-38
-16
12
44
86
130
171
202
225
247
261
263
246
221
195
169
151
131
101
75
54
41
30
17
-2
-19
-34
-40
-43
-47
-55
-60
-63
-66
-67
-65
-67
-71
-73
-71
-66
-65
-66
-68
-67
-67
-67
-64
-66
-63
-66
-65
-64
-60
-60
-62
-67
-66
-64
-61
-58
-61
-60
-61
-60
-58
-59
-60
-60
-61
-59
-57
-61
-64
-67
-66
-63
-61
-61
-66
-68
-68
-66
-67
-64
-65
-64
-64
-62
-59
-58
-53
-54
-52
-50
-44
-42
-40
-32
-29
-23
-18
-16
-16
-16
-13
-8
-3
-5
-4
-6
-4
-4
-3
-5
-6
-7
-10
-7
-11
-10
-12
-18
-20
-25
-26
-27
-28
-31
-33
-33
-33
-37
-36
-37
-40
-38
-37
-40
-41
-44
-46
-46
-47
-47
-50
-50
-52
-49
-45
-46
-49
-51
-50
-48
-47
-48
-51
-51
-50
-50
-49
-54
-53
-54
-56
-54
-52
-51
-50
-53
-57
-57
-52
-53
-55
-57
-57
-51
-51
-52
-55
-56
-58
-52
-51
-51
-54
-57
-58
-55
-52
-54
-55
-57
-58
-54
-50
-50
-48
-43
-41
-39
-36
-37
-40
-43
-42
-37
-28
-24
-21
-22
-23
-21
-15
-13
-15
-21
-24
-22
-22
-22
-24
-32
-43
-51
-57
-61
-60
-63
-65
-65
-66
-66
-66
-66
-66
-62
-62
-62
-61
-62
-60
-61
-60
-61
-62
-62
-58
-54
-55
-55
-56
-60
-60
-58
-54
-46
-31
-11
20
54
90
124
162
194
221
242
254
245
219
184
156
137
117
83
52
31
23
13
-1
-22
-33
-43
-51
-57
-66
-74
-78
-82
-83
-84
-85
-84
-86
-88
-87
-86
-83
-81
-83
-83
-85
-81
-78
-77
-77
-80
-83
-80
-78
-77
-81
-80
-83
-82
-81
-80
-78
-81
-84
-80
-79
-80
-81
-80
-81
-81
-80
-81
-85
-83
-85
-82
-80
-80
-81
-82
-80
-77
-74
-75
-77
-78
-78
-74
-69
-67
-68
-67
-68
-64
-59
-55
-55
-52
-51
-48
-44
-40
-36
-34
-30
-25
-25
-24
-24
-25
-24
-23
-20
-19
-20
-22
-26
-26
-26
-26
-27
-30
-32
-34
-34
-33
-34
-37
-38
-36
-36
-36
-38
-40
-41
-41
-38
-40
-41
-41
-42
-39
-39
-39
-42
-43
-44
-42
-43
-42
-43
-47
-46
-47
-43
-43
-44
-47
-46
-47
-42
-43
-43
-45
-47
-44
-43
-43
-44
-43
-46
-48
-46
-45
-42
-44
-44
-41
-40
-44
-42
-43
-42
-41
-41
-40
-42
-43
-47
-43
-43
-41
-43
-45
-47
-43
-42
-42
-44
-47
-44
-42
-37
-33
-29
-28
-26
-23
-23
-22
-21
-21
-20
-12
-10
-8
-8
-7
-5
-7
-6
-7
-8
-11
-11
-9
-11
-17
-30
-46
-52
-59
-55
-56
-60
-60
-60
-60
-57
-57
-57
-61
-58
-60
-60
-59
-59
-59
-59
-59
-58
-54
-56
-59
-59
-56
-53
-55
-58
-58
-59
-56
-47
-34
-10
17
50
90
130
169
199
221
240
252
244
216
187
162
146
129
104
76
46
32
17
0
-20
-34
-47
-56
-66
-74
-79
-83
-89
-95
-97
-97
-96
-93
-96
-99
-99
-98
-96
-95
-92
-95
-96
-94
-93
-93
-92
-94
-93
-91
-89
-88
-89
-92
-93
-91
-91
-91
-93
-93
-92
-93
-90
-92
-94
-95
-94
-92
-90
-88
-91
-92
-94
-92
-88
-88
-87
-89
-89
-89
-87
-82
-83
-83
-82
-80
-76
-73
-70
-69
-67
-66
-60
-58
-57
-55
-52
-48
-43
-40
-36
-36
-32
-29
-28
-27
-25
-28
-29
-25
-26
-27
-29
-31
-35
-34
-33
-32
-35
-39
-39
-41
-41
-36
-42
-47
-46
-47
-45
-45
-45
-47
-48
-47
-45
-46
-48
-49
-51
-48
-46
-47
-48
-53
-52
-50
-50
-47
-49
-52
-53
-52
-48
-50
-52
-52
-55
-55
-52
-50
-49
-54
-54
-54
-50
-48
-47
-50
-52
-53
-50
-48
-50
-48
-52
-50
-50
-50
-52
-52
-51
-52
-44
-47
-50
-47
-51
-47
-47
-46
-45
-49
-49
-45
-45
-44
-45
-45
-43
-36
-30
-26
-27
-27
-30
-31
-26
-23
-19
-16
-16
-14
-10
-10
-8
-6
-6
-7
-8
-11
-16
-23
-29
-37
-46
-54
-59
-61
-62
-62
-58
-57
-60
-63
-63
-61
-59
-54
-60
-61
-59
-58
-56
-54
-54
-56
-58
-54
-52
-53
-50
-52
-57
-56
-55
-51
-44
-28
-1
37
79
122
165
200
225
245
262
262
244
214
186
163
137
103
65
41
26
13
-6
-24
-39
-52
-65
-72
-79
-81
-84
-87
-90
-94
-95
-95
-94
-97
-96
-92
-90
-88
-88
-89
-93
-93
-90
-87
-87
-90
-91
-89
-90
-88
-89
-90
-90
-93
-89
-91
-91
-93
-93
-91
-91
-90
-93
-92
-93
-89
-89
-89
-92
-92
-90
-87
-81
-81
-80
-82
-79
-74
-70
-69
-69
-70
-67
-62
-56
-54
-55
-56
-52
-46
-41
-38
-37
-34
-34
-31
-28
-26
-22
-23
-25
-22
-22
-24
-25
-28
-27
-27
-28
-32
-32
-35
-36
-35
-35
-36
-39
-46
-45
-43
-42
-41
-43
-45
-45
-45
-44
-46
-48
-50
-50
-44
-46
-46
-50
-53
-52
-51
-48
-49
-49
-53
-54
-53
-51
-49
-52
-53
-55
-53
-52
-52
-51
-53
-52
-54
-52
-54
-56
-54
-56
-55
-52
-53
-54
-55
-55
-54
-50
-53
-56
-58
-57
-54
-54
-56
-58
-55
-55
-53
-50
-51
-53
-57
-57
-54
-48
-47
-46
-44
-40
-37
-38
-38
-41
-40
-38
-30
-24
-22
-21
-22
-18
-17
-16
-18
-21
-23
-23
-27
-29
-36
-43
-51
-57
-67
-68
-69
-71
-70
-71
-70
-69
-71
-68
-71
-69
-67
-66
-69
-65
-65
-64
-66
-63
-60
-58
-60
-59
-57
-54
-57
-61
-62
-63
-57
-50
-31
-5
27
66
110
152
187
215
232
240
235
216
184
160
138
118
93
58
25
7
-3
-19
-36
-49
-60
-69
-77
-81
-85
-88
-87
-91
-95
-100
-101
-101
-100
-103
-103
-102
-98
-97
-97
-101
-101
-101
-96
-92
-92
-92
-96
-102
-100
-102
-101
-98
-97
-101
-101
-100
-98
-99
-100
-101
-101
-98
-101
-102
-104
-105
-102
-97
-96
-97
-98
-100
-97
-91
-91
-93
-92
-96
-91
-83
-80
-80
-79
-77
-72
-67
-66
-64
-65
-62
-57
-52
-49
-47
-47
-43
-37
-32
-32
-33
-32
-35
-31
-30
-30
-30
-31
-33
-33
-32
-36
-37
-40
-42
-40
-43
-41
-45
-46
-46
-43
-43
-41
-44
-47
-49
-44
-44
-48
-48
-50
-48
-46
-45
-48
-49
-50
-51
-50
-47
-48
-49
-49
-52
-51
-48
-48
-48
-50
-51
-48
-46
-47
-48
-51
-52
-52
-48
-49
-50
-49
-50
-47
-46
-48
-48
-50
-51
-49
-47
-47
-50
-52
-46
-44
-41
-43
-47
-47
-47
-47
-48
-48
-47
-49
-48
-46
-44
-43
-42
-39
-39
-34
-26
-26
-28
-32
-32
-27
-19
-17
-15
-14
-13
-6
-4
-2
-8
-10
-15
-13
-12
-17
-24
-32
-42
-49
-53
-58
-61
-62
-61
-59
-57
-58
-58
-57
-56
-52
-52
-55
-57
-56
-56
-49
-49
-47
-47
-48
-52
-45
-45
-46
-48
-51
-48
-43
-26
2
33
65
100
142
184
213
238
250
254
237
211
180
155
130
95
62
40
32
25
14
-4
-23
-34
-43
-55
-64
-73
-76
-76
-79
-80
-86
-89
-90
-86
-84
-85
-88
-87
-84
-82
-81
-82
-84
-84
-80
-77
-78
-83
-84
-87
-84
-80
-78
-79
-77
-78
-76
-78
-77
-78
-80
-82
-80
-78
-77
-77
-83
-86
-85
-81
-79
-81
-77
-80
-78
-77
-76
-73
-74
-73
-71
-69
-69
-62
-60
-57
-52
-46
-46
-43
-43
-42
-38
-35
-32
-28
-27
-26
-22
-18
-17
-17
-17
-17
-19
-15
-17
-16
-19
-23
-24
-25
-25
-25
-32
-33
-33
-34
-36
-37
-38
-41
-41
-41
-42
-42
-44
-44
-42
-41
-41
-41
-41
-42
-40
-40
-41
-41
-43
-43
-42
-39
-39
-40
-44
-40
-40
-36
-38
-40
-41
-44
-40
-39
-40
-39
-41
-40
-40
-38
-36
-35
-38
-40
-41
-37
-36
-34
-36
-38
-38
-33
-36
-37
-42
-43
-41
-38
-39
-39
-39
-39
-41
-40
-38
-40
-41
-41
-39
-39
-39
-38
-37
-33
-27
-22
-19
-22
-25
-26
-21
-18
-13
-14
-12
-12
-6
-2
2
-2
-3
-3
-2
-4
-5
-10
-18
-26
-38
-44
-50
-52
-54
-57
-59
-56
-57
-58
-56
-56
-53
-54
-56
-56
-55
-57
-53
-51
-50
-56
-54
-54
-51
-49
-48
-51
-51
-53
-51
-50
-45
-35
-18
3
41
77
116
154
189
215
236
252
256
240
212
184
161
142
115
83
55
40
20
9
-10
-28
-42
-52
-59
-67
-73
-79
-83
-86
-85
-86
-86
-85
-88
-88
-87
-86
-85
-86
-86
-89
-84
-82
-81
-82
-82
-81
-82
-80
-82
-85
-86
-85
-84
-81
-81
-82
-83
-84
-84
-84
-84
-81
-84
-87
-82
-79
-80
-84
-85
-87
-85
-81
-80
-77
-81
-81
-80
-79
-78
-79
-78
-76
-74
-70
-69
-70
-66
-63
-60
-54
-53
-54
-52
-48
-43
-40
-38
-34
-35
-32
-25
-22
-22
-21
-19
-21
-17
-15
-10
-16
-16
-20
-20
-18
-20
-22
-20
-24
-27
-28
-29
-26
-28
-32
-34
-33
-37
-41
-41
-41
-42
-46
-47
-49
-47
-44
-44
-45
-41
-35
-38
-36
-32
-29
-30
-35
-37
-39
-35
-33
-33
-33
-32
-31
-32
-32
-30
-27
-28
-27
-26
-23
-25
-24
-24
-22
-21
-18
-19
-20
-23
-22
-22
-19
-21
-23
-26
-28
-25
-22
-27
-24
-28
-29
-26
-24
-25
-25
-27
-29
-25
-23
-22
-24
-22
-23
-21
-20
-19
-20
-14
-8
0
3
2
-1
-6
-9
-6
2
3
6
3
3
8
12
16
12
11
8
10
7
3
-3
-11
-22
-28
-31
-32
-36
-41
-42
-38
-34
-32
-35
-41
-39
-42
-37
-36
-38
-39
-44
-40
-37
-36
-36
-37
-39
-36
-32
-32
-35
-38
-43
-43
-40
-38
-29
-11
14
51
91
131
176
211
236
259
273
262
230
202
179
163
148
121
89
67
54
43
24
3
-13
-26
-39
-49
-57
-65
-69
-73
-73
-80
-80
-82
-81
-82
-84
-82
-81
-81
-83
-84
-84
-83
-79
-82
-80
-81
-82
-77
-77
-80
-83
-83
-82
-77
-74
-76
-78
-80
-80
-78
-74
-75
-74
-75
-76
-76
-74
-74
-76
-77
-77
-73
-72
-71
-71
-73
-72
-70
-68
-69
-67
-69
-69
-64
-63
-59
-59
-58
-57
-51
-46
-46
-44
-42
-40
-35
-30
-31
-31
-28
-24
-21
-17
-15
-13
-13
-14
-14
-9
-10
-11
-15
-15
-15
-14
-17
-19
-21
-23
-23
-23
-25
-27
-29
-29
-32
-31
-32
-35
-38
-42
-38
-35
-34
-37
-43
-44
-40
-40
-39
-41
-41
-42
-41
-41
-42
-42
-42
-42
-40
-41
-43
-43
-43
-43
-46
-42
-41
-44
-43
-44
-40
-38
-39
-39
-43
-42
-42
-43
-44
-41
-42
-42
-43
-42
-43
-42
-45
-44
-43
-42
-42
-44
-47
-49
-44
-44
-42
-43
-45
-45
-46
-45
-45
-42
-42
-45
-44
-40
-38
-39
-42
-44
-43
-42
-37
-37
-34
-28
-23
-18
-14
-17
-22
-27
-20
-13
-10
-9
-8
-10
-7
-1
4
4
-1
-2
-3
-3
-5
-7
-11
-15
-21
-27
-38
-49
-55
-55
-55
-56
-57
-57
-60
-61
-62
-56
-56
-54
-57
-58
-58
-56
-54
-53
-53
-53
-55
-52
-51
-51
-53
-54
-53
-51
-53
-56
-59
-59
-54
-40
-20
7
41
76
120
159
193
219
241
253
249
232
203
176
158
137
110
82
60
46
32
17
0
-18
-29
-44
-58
-69
-76
-79
-83
-85
-91
-94
-91
-90
-91
-92
-93
-90
-89
-85
-87
-88
-88
-88
-86
-84
-83
-87
-86
-87
-84
-82
-82
-86
-86
-86
-82
-81
-80
-83
-86
-88
-87
-86
-84
-85
-87
-89
-89
-89
-91
-89
-90
-90
-90
-89
-87
-89
-93
-89
-85
-82
-82
-83
-82
-77
-72
-68
-71
-72
-69
-68
-64
-60
-53
-47
-47
-48
-46
-40
-35
-30
-29
-29
-25
-24
-22
-21
-23
-21
-22
-18
-18
-22
-27
-30
-29
-28
-28
-30
-35
-38
-36
-34
-35
-39
-40
-42
-40
-41
-39
-42
-43
-45
-42
-43
-44
-43
-43
-41
-42
-41
-43
-45
-45
-43
-42
-40
-43
-45
-48
-49
-46
-45
-45
-49
-51
-51
-49
-46
-45
-48
-51
-51
-50
-50
-49
-48
-51
-54
-53
-53
-54
-53
-55
-52
-53
-52
-51
-53
-56
-55
-53
-49
-48
-52
-53
-55
-54
-53
-53
-57
-55
-56
-54
-54
-52
-54
-54
-55
-54
-53
-53
-54
-53
-49
-43
-36
-35
-32
-36
-39
-38
-36
-32
-29
-27
-28
-24
-18
-15
-16
-17
-19
-22
-22
-23
-25
-25
-28
-34
-42
-55
-64
-69
-72
-71
-71
-72
-73
-74
-72
-71
-72
-72
-73
-72
-72
-72
-72
-72
-73
-74
-72
-71
-68
-66
-71
-70
-72
-70
-70
-69
-74
-77
-78
-75
-62
-47
-24
3
38
80
122
161
195
222
240
245
234
207
183
157
130
102
67
36
20
13
1
-19
-35
-47
-58
-69
-83
-91
-93
-95
-100
-107
-107
-109
-107
-106
-110
-112
-111
-111
-109
-110
-112
-110
-110
-109
-108
-109
-108
-111
-109
-107
-105
-106
-107
-106
-109
-104
-102
-100
-103
-106
-109
-105
-102
-104
-103
-103
-103
-105
-106
-106
-105
-109
-107
-107
-104
-103
-102
-105
-107
-106
-103
-101
-102
-102
-97
-93
-90
-90
-88
-85
-82
-78
-75
-74
-75
-73
-71
-65
-58
-56
-53
-53
-52
-47
-42
-43
-44
-44
-44
-44
-46
-44
-48
-49
-47
-49
-47
-49
-51
-55
-54
-54
-57
-57
-58
-63
-64
-61
-60
-59
-61
-62
-64
-59
-57
-57
-62
-63
-67
-62
-61
-60
-61
-64
-67
-62
-58
-59
-60
-63
-64
-62
-59
-59
-59
-60
-63
-60
-62
-58
-61
-59
-60
-58
-60
-56
-57
-58
-56
-56
-52
-55
-55
-56
-57
-55
-55
-52
-55
-55
-54
-53
-54
-50
-53
-54
-54
-51
-50
-50
-52
-54
-55
-54
-50
-47
-46
-48
-50
-44
-40
-37
-34
-34
-33
-28
-32
-30
-26
-21
-18
-14
-11
-10
-9
-7
-4
-4
-8
-10
-13
-14
-17
-20
-27
-38
-51
-57
-61
-59
-60
-60
-64
-60
-63
-62
-58
-57
-59
-62
-61
-63
-60
-58
-58
-56
-61
-57
-57
-55
-56
-56
-59
-56
-57
-62
-62
-61
-49
-29
2
38
74
114
154
189
217
233
244
240
219
193
169
149
129
103
73
50
37
23
3
-15
-35
-46
-56
-63
-75
-85
-90
-93
-94
-95
-97
-100
-103
-102
-101
-101
-99
-100
-100
-98
-97
-96
-97
-96
-96
-94
-92
-93
-96
-97
-96
-94
-92
-93
-93
-95
-96
-91
-91
-93
-95
-97
-98
-97
-96
-96
-94
-98
-99
-98
-94
-94
-95
-96
-96
-94
-92
-92
-93
-93
-89
-86
-84
-83
-83
-82
-82
-77
-71
-69
-70
-67
-61
-55
-55
-49
-49
-47
-43
-40
-36
-33
-33
-34
-32
-31
-27
-27
-31
-28
-31
-31
-30
-30
-33
-38
-40
-41
-41
-42
-44
-46
-50
-48
-47
-49
-51
-54
-54
-52
-51
-51
-52
-53
-54
-52
-49
-54
-56
-57
-58
-55
-55
-55
-57
-58
-62
-59
-56
-55
-58
-60
-61
-62
-59
-57
-59
-58
-58
-57
-56
-56
-59
-58
-57
-55
-54
-54
-55
-54
-55
-53
-54
-53
-54
-53
-54
-48
-49
-50
-54
-53
-54
-51
-49
-51
-52
-51
-53
-49
-48
-49
-49
-50
-54
-50
-44
-41
-40
-35
-32
-31
-30
-30
-29
-25
-20
-17
-10
-9
-8
-8
-8
-7
-5
-8
-9
-15
-16
-19
-25
-37
-48
-59
-62
-60
-60
-61
-61
-63
-63
-61
-59
-59
-61
-62
-61
-59
-59
-59
-59
-59
-56
-53
-52
-53
-52
-55
-58
-58
-59
-58
-55
-41
-13
25
60
101
139
176
206
232
251
248
222
196
169
154
135
106
72
49
36
22
5
-16
-31
-50
-67
-75
-78
-83
-86
-95
-98
-97
-96
-98
-99
-98
-100
-93
-93
-91
-93
-93
-94
-91
-90
-91
-90
-92
-94
-91
-90
-92
-93
-91
-94
-87
-88
-89
-92
-91
-91
-89
-88
-89
-89
-92
-88
-87
-87
-88
-89
-90
-90
-87
-84
-84
-82
-84
-84
-80
-76
-74
-74
-74
-74
-71
-64
-62
-60
-62
-60
-53
-46
-44
-40
-42
-42
-36
-28
-26
-25
-27
-27
-24
-23
-23
-22
-25
-27
-26
-28
-29
-33
-33
-36
-35
-36
-39
-39
-43
-42
-44
-42
-42
-45
-47
-48
-46
-42
-42
-44
-47
-49
-46
-45
-47
-47
-54
-53
-50
-49
-48
-49
-52
-51
-50
-48
-48
-51
-52
-53
-50
-47
-47
-49
-50
-52
-53
-52
-51
-51
-52
-54
-53
-50
-49
-50
-53
-54
-52
-52
-52
-50
-52
-52
-52
-49
-50
-51
-53
-51
-51
-48
-49
-49
-49
-51
-49
-48
-48
-47
-48
-45
-41
-34
-33
-31
-28
-30
-29
-27
-22
-20
-17
-18
-13
-11
-7
-9
-9
-9
-8
-9
-9
-13
-18
-26
-33
-44
-51
-57
-59
-64
-63
-61
-63
-62
-64
-64
-62
-61
-61
-61
-61
-59
-59
-58
-59
-57
-60
-58
-55
-52
-51
-50
-55
-59
-61
-59
-59
-54
-44
-27
5
40
76
121
160
197
226
243
244
225
195
168
151
134
108
79
56
44
36
21
1
-19
-36
-50
-61
-69
-78
-87
-92
-92
-93
-94
-95
-97
-103
-99
-97
-94
-94
-98
-97
-99
-95
-93
-91
-94
-95
-95
-94
-91
-93
-91
-93
-93
-92
-90
-90
-91
-94
-94
-95
-91
-93
-94
-95
-96
-96
-94
-95
-95
-94
-97
-95
-93
-95
-93
-93
-92
-91
-88
-87
-86
-83
-82
-77
-72
-71
-71
-71
-72
-65
-60
-57
-56
-58
-54
-50
-43
-41
-40
-39
-38
-37
-33
-32
-33
-36
-36
-35
-34
-31
-36
-37
-40
-40
-42
-43
-44
-48
-46
-45
-47
-49
-53
-55
-54
-51
-52
-54
-56
-61
-62
-61
-57
-54
-59
-60
-63
-61
-61
-60
-62
-61
-64
-63
-62
-62
-64
-65
-66
-64
-63
-64
-65
-68
-66
-64
-63
-64
-65
-65
-64
-61
-60
-60
-61
-62
-66
-62
-62
-60
-63
-65
-66
-63
-62
-61
-63
-62
-66
-66
-64
-62
-61
-64
-68
-65
-63
-60
-60
-62
-63
-60
-60
-63
-58
-59
-57
-48
-44
-42
-46
-49
-49
-40
-35
-33
-30
-30
-29
-24
-18
-17
-19
-26
-29
-29
-29
-29
-34
-39
-48
-56
-65
-70
-71
-73
-75
-76
-75
-74
-73
-74
-76
-71
-70
-67
-71
-72
-72
-70
-68
-66
-67
-68
-68
-65
-66
-63
-61
-63
-68
-68
-67
-64
-57
-48
-26
9
40
70
100
133
166
196
220
232
227
209
178
153
132
103
73
42
26
18
3
-15
-35
-49
-58
-64
-72
-78
-87
-91
-93
-94
-94
-95
-96
-99
-101
-98
-96
-94
-94
-94
-96
-92
-93
-91
-95
-94
-95
-91
-88
-88
-92
-93
-92
-90
-91
-89
-90
-90
-90
-92
-87
-90
-90
-92
-93
-90
-89
-90
-91
-92
-92
-89
-89
-88
-90
-94
-93
-90
-83
-82
-82
-83
-82
-82
-78
-75
-76
-72
-71
-69
-64
-60
-60
-56
-55
-49
-46
-45
-41
-40
-39
-35
-31
-29
-28
-31
-31
-29
-25
-28
-28
-34
-38
-32
-32
-36
-38
-42
-44
-41
-42
-40
-43
-42
-43
-43
-41
-46
-47
-47
-46
-46
-44
-47
-48
-48
-48
-46
-47
-45
-49
-48
-51
-48
-46
-48
-47
-52
-53
-47
-49
-48
-50
-50
-51
-47
-44
-46
-49
-51
-52
-49
-47
-49
-50
-52
-52
-49
-47
-49
-49
-50
-51
-50
-49
-49
-49
-50
-52
-50
-48
-50
-50
-50
-51
-48
-48
-49
-51
-49
-48
-46
-43
-42
-43
-38
-34
-27
-24
-30
-33
-36
-30
-21
-16
-15
-16
-14
-12
-8
-7
-8
-9
-14
-17
-15
-19
-24
-31
-44
-54
-61
-60
-60
-61
-63
-62
-58
-61
-61
-60
-61
-62
-59
-58
-57
-56
-57
-58
-55
-54
-56
-57
-57
-55
-53
-51
-51
-56
-59
-60
-55
-41
-24
3
33
63
103
142
179
206
227
243
253
243
217
190
167
148
127
99
72
52
39
29
14
-2
-20
-33
-48
-61
-70
-76
-82
-86
-91
-97
-97
-96
-97
-96
-98
-101
-98
-93
-96
-95
-96
-96
-94
-93
-90
-91
-92
-94
-92
-93
-90
-93
-91
-92
-89
-87
-90
-91
-94
-94
-91
-89
-91
-91
-93
-92
-88
-89
-89
-92
-94
-95
-93
-89
-87
-89
-90
-89
-86
-85
-83
-82
-82
-83
-79
-77
-73
-73
-71
-71
-64
-64
-61
-61
-60
-54
-50
-42
-41
-40
-39
-38
-35
-29
-29
-27
-25
-25
-22
-21
-19
-22
-26
-29
-29
-29
-29
-32
-35
-35
-37
-36
-37
-37
-39
-44
-42
-39
-41
-43
-47
-46
-42
-44
-45
-47
-47
-47
-49
-48
-47
-50
-51
-54
-53
-48
-52
-52
-54
-57
-55
-54
-53
-54
-55
-58
-55
-53
-52
-52
-51
-55
-53
-51
-51
-52
-52
-51
-53
-52
-52
-52
-51
-52
-50
-51
-51
-52
-53
-53
-49
-49
-50
-50
-54
-52
-49
-49
-51
-52
-54
-53
-48
-47
-48
-47
-51
-50
-48
-47
-42
-38
-35
-32
-28
-29
-32
-32
-30
-30
-21
-20
-15
-14
-14
-13
-9
-5
-6
-9
-14
-15
-18
-19
-22
-35
-46
-55
-57
-57
-59
-59
-64
-65
-65
-62
-60
-61
-63
-65
-62
-58
-58
-59
-60
-60
-57
-57
-55
-56
-56
-55
-54
-51
-52
-55
-58
-61
-55
-48
-33
-12
15
47
86
126
164
198
219
237
243
232
207
178
155
133
110
81
56
40
27
7
-12
-22
-36
-48
-62
-71
-79
-80
-86
-90
-95
-97
-95
-96
-92
-94
-96
-98
-96
-93
-91
-91
-90
-91
-91
-89
-88
-87
-88
-89
-87
-85
-88
-85
-87
-86
-84
-84
-84
-86
-89
-87
-85
-86
-84
-87
-91
-93
-88
-87
-85
-84
-88
-88
-87
-85
-81
-84
-84
-84
-81
-78
-75
-76
-73
-71
-68
-68
-67
-63
-61
-59
-57
-50
-49
-45
-45
-41
-36
-32
-30
-31
-30
-27
-23
-18
-19
-18
-24
-25
-21
-20
-21
-25
-27
-30
-30
-31
-31
-33
-35
-36
-36
-34
-37
-41
-43
-41
-39
-37
-38
-41
-45
-48
-45
-42
-43
-45
-45
-48
-47
-45
-48
-49
-50
-53
-52
-49
-49
-52
-51
-51
-47
-49
-50
-50
-52
-56
-53
-49
-47
-48
-50
-50
-48
-49
-49
-50
-52
-55
-47
-50
-47
-47
-50
-52
-51
-46
-48
-50
-53
-51
-49
-48
-46
-46
-47
-49
-48
-46
-47
-46
-46
-49
-47
-48
-46
-47
-49
-48
-42
-40
-38
-37
-39
-33
-28
-24
-26
-28
-30
-25
-21
-14
-11
-11
-10
-9
-6
-4
-5
-6
-7
-11
-9
-8
-13
-20
-30
-38
-47
-52
-55
-58
-60
-59
-56
-57
-60
-59
-60
-60
-57
-56
-56
-57
-57
-60
-58
-56
-55
-54
-54
-53
-53
-49
-50
-50
-50
-54
-52
-52
-50
-46
-36
-14
17
51
86
125
164
197
227
249
258
250
227
200
179
161
136
102
70
47
36
25
7
-14
-29
-43
-50
-60
-68
-75
-82
-86
-87
-89
-91
-96
-96
-95
-92
-92
-89
-92
-92
-94
-90
-87
-88
-87
-91
-92
-91
-85
-83
-82
-84
-86
-86
-87
-86
-86
-85
-86
-85
-87
-82
-82
-85
-84
-86
-85
-85
-86
-86
-88
-87
-85
-85
-84
-86
-87
-83
-82
-81
-84
-82
-80
-76
-74
-73
-70
-71
-70
-65
-61
-58
-57
-55
-57
-51
-48
-46
-43
-41
-39
-34
-30
-27
-21
-22
-25
-25
-23
-20
-22
-24
-27
-27
-27
-28
-29
-32
-33
-32
-34
-36
-36
-39
-40
-41
-41
-42
-43
-46
-47
-47
-45
-45
-49
-50
-51
-49
-47
-48
-52
-54
-55
-52
-47
-51
-52
-50
-52
-52
-53
-51
-51
-51
-51
-50
-48
-50
-51
-50
-51
-50
-47
-48
-52
-50
-50
-47
-46
-48
-49
-49
-48
-47
-46
-45
-48
-48
-51
-45
-43
-46
-47
-50
-51
-49
-46
-45
-45
-46
-49
-46
-43
-44
-44
-45
-45
-43
-42
-42
-44
-44
-41
-38
-34
-28
-30
-30
-29
-27
-25
-24
-23
-21
-18
-15
-10
-7
-7
-4
-3
-1
0
-3
-6
-7
-10
-9
-8
-11
-17
-29
-40
-47
-51
-50
-51
-53
-56
-55
-54
-54
-51
-56
-55
-53
-49
-50
-48
-50
-51
-48
-46
-45
-46
-48
-47
-46
-43
-43
-44
-46
-48
-47
-47
-48
-45
-38
-26
-1
28
60
95
134
171
205
230
245
251
242
219
192
176
157
137
113
84
63
48
35
20
-2
-16
-26
-39
-48
-59
-71
-78
-79
-81
-82
-84
-89
-91
-89
-88
-88
-88
-89
-89
-88
-86
-87
-85
-86
-86
-85
-82
-84
-84
-84
-86
-82
-83
-81
-82
-82
-82
-84
-81
-81
-82
-85
-88
-87
-83
-84
-83
-87
-88
-88
-85
-85
-85
-84
-86
-86
-81
-79
-78
-80
-80
-79
-75
-72
-69
-69
-68
-62
-59
-57
-54
-53
-50
-45
-40
-37
-35
-34
-31
-26
-23
-19
-23
-25
-25
-22
-17
-17
-21
-25
-28
-26
-24
-25
-27
-31
-34
-33
-33
-35
-36
-39
-40
-41
-40
-40
-43
-42
-43
-40
-42
-45
-44
-47
-48
-44
-41
-43
-45
-46
-48
-47
-46
-48
-48
-50
-49
-51
-47
-46
-49
-50
-54
-53
-49
-49
-47
-47
-49
-47
-47
-45
-46
-49
-48
-47
-45
-45
-49
-46
-47
-45
-45
-46
-46
-47
-48
-45
-42
-44
-46
-46
-46
-43
-42
-42
-42
-46
-45
-43
-40
-41
-39
-40
-44
-39
-36
-33
-27
-25
-25
-23
-23
-21
-23
-22
-19
-13
-9
-8
-6
-4
-3
0
-1
-2
-5
-6
-9
-7
-8
-14
-22
-34
-46
-51
-53
-53
-54
-58
-58
-55
-55
-53
-54
-56
-58
-56
-54
-54
-54
-56
-55
-51
-53
-50
-50
-50
-51
-46
-46
-47
-47
-50
-54
-54
-53
-48
-41
-29
-7
24
55
85
117
154
186
215
239
252
251
229
199
176
156
136
110
80
60
53
43
31
13
-7
-25
-33
-42
-56
-68
-75
-80
-80
-80
-87
-93
-93
-95
-93
-89
-91
-92
-94
-92
-94
-90
-91
-89
-92
-90
-88
-87
-87
-85
-92
-89
-88
-89
-89
-90
-89
-89
-87
-87
-88
-90
-93
-92
-88
-88
-87
-90
-93
-94
-91
-88
-88
-87
-91
-89
-86
-83
-83
-84
-85
-84
-81
-79
-75
-72
-70
-69
-66
-65
-61
-61
-59
-57
-52
-49
-46
-43
-43
-40
-35
-29
-28
-26
-24
-22
-21
-19
-17
-18
-21
-21
-24
-22
-23
-27
-29
-31
-32
-33
-34
-37
-38
-39
-39
-38
-41
-45
-48
-48
-45
-43
-44
-46
-47
-49
-48
-44
-45
-47
-51
-55
-53
-51
-49
-49
-52
-53
-54
-49
-50
-50
-53
-53
-51
-47
-48
-50
-51
-54
-52
-51
-50
-51
-51
-47
-49
-45
-45
-48
-48
-47
-47
-44
-47
-48
-49
-49
-47
-47
-45
-45
-46
-46
-43
-43
-42
-42
-45
-48
-45
-42
-39
-40
-41
-45
-42
-38
-33
-27
-26
-26
-21
-23
-24
-24
-21
-20
-13
-9
-9
-8
-7
-7
-4
-5
-10
-10
-13
-13
-13
-16
-25
-36
-50
-57
-58
-58
-57
-59
-62
-64
-61
-58
-56
-56
-57
-59
-57
-57
-56
-58
-56
-55
-55
-52
-53
-52
-52
-53
-53
-51
-52
-54
-56
-56
-52
-39
-19
8
42
82
121
156
185
210
232
245
250
240
210
186
163
139
113
84
61
43
29
9
-5
-19
-34
-48
-58
-69
-76
-78
-82
-89
-90
-94
-94
-93
-91
-95
-92
-93
-93
-87
-89
-88
-89
-93
-87
-90
-86
-89
-89
-88
-86
-86
-86
-86
-87
-89
-86
-85
-84
-87
-90
-89
-89
-86
-84
-87
-89
-89
-87
-86
-84
-87
-89
-87
-85
-82
-81
-80
-82
-83
-75
-75
-72
-73
-71
-70
-68
-65
-63
-59
-57
-54
-50
-45
-43
-40
-38
-36
-31
-29
-24
-23
-22
-22
-20
-19
-21
-23
-23
-20
-22
-21
-22
-27
-29
-32
-32
-32
-33
-33
-37
-39
-40
-36
-38
-39
-42
-42
-45
-41
-45
-46
-45
-47
-45
-44
-46
-49
-51
-53
-49
-50
-50
-51
-54
-55
-52
-49
-51
-51
-53
-52
-50
-48
-48
-50
-54
-54
-52
-49
-50
-53
-54
-52
-50
-50
-51
-50
-50
-50
-46
-46
-46
-49
-49
-49
-47
-45
-46
-47
-49
-49
-46
-45
-44
-47
-46
-48
-44
-40
-42
-45
-48
-46
-39
-35
-33
-32
-32
-31
-27
-25
-26
-26
-23
-20
-13
-11
-9
-8
-5
-7
-6
-6
-9
-11
-11
-15
-19
-24
-37
-47
-56
-61
-61
-62
-64
-63
-62
-62
-61
-59
-60
-59
-62
-62
-59
-56
-58
-58
-58
-59
-57
-55
-54
-54
-55
-55
-57
-57
-57
-55
-43
-20
14
49
89
131
171
205
231
244
237
212
184
161
145
121
89
55
38
23
9
-8
-24
-38
-54
-66
-75
-79
-81
-88
-94
-99
-96
-95
-95
-95
-97
-98
-95
-93
-94
-92
-95
-96
-95
-91
-91
-90
-92
-91
-91
-90
-90
-90
-94
-95
-93
-90
-90
-89
-92
-93
-92
-91
-92
-91
-92
-92
-91
-89
-89
-90
-93
-92
-87
-86
-82
-84
-86
-85
-78
-74
-74
-75
-73
-72
-71
-65
-62
-57
-56
-54
-50
-45
-46
-42
-37
-34
-30
-26
-29
-25
-28
-27
-27
-24
-26
-31
-31
-34
-32
-33
-31
-37
-40
-42
-44
-42
-43
-46
-48
-50
-49
-47
-46
-49
-50
-51
-53
-55
-54
-54
-54
-56
-55
-54
-54
-52
-55
-58
-58
-56
-55
-56
-58
-57
-55
-54
-57
-59
-61
-58
-57
-55
-57
-58
-62
-62
-58
-57
-55
-56
-57
-57
-57
-57
-56
-56
-59
-61
-56
-55
-54
-57
-59
-60
-58
-57
-54
-54
-57
-57
-56
-52
-56
-56
-58
-57
-56
-53
-53
-53
-54
-50
-47
-42
-39
-37
-37
-38
-37
-33
-25
-22
-22
-23
-17
-17
-12
-14
-13
-14
-15
-14
-17
-20
-26
-35
-40
-46
-55
-62
-68
-69
-69
-68
-66
-67
-69
-69
-66
-63
-63
-65
-67
-64
-63
-60
-62
-62
-65
-63
-60
-57
-59
-60
-62
-64
-64
-62
-62
-62
-54
-32
-1
33
70
106
143
176
207
228
234
226
200
174
154
136
113
81
48
25
15
1
-19
-38
-54
-64
-71
-82
-87
-89
-94
-94
-97
-96
-100
-101
-102
-101
-99
-97
-95
-97
-98
-98
-95
-91
-92
-95
-96
-96
-94
-89
-92
-93
-95
-97
-95
-90
-93
-95
-98
-98
-97
-92
-94
-93
-98
-100
-98
-95
-93
-90
-94
-94
-92
-90
-89
-88
-88
-89
-89
-82
-80
-76
-76
-75
-73
-67
-64
-64
-63
-59
-56
-53
-50
-45
-43
-41
-37
-38
-33
-34
-32
-33
-33
-32
-35
-38
-39
-42
-43
-42
-40
-46
-47
-49
-46
-47
-50
-56
-55
-56
-55
-51
-55
-57
-60
-58
-57
-54
-56
-56
-61
-61
-60
-57
-57
-59
-63
-64
-60
-60
-59
-61
-63
-62
-62
-58
-58
-59
-59
-64
-59
-58
-58
-62
-64
-62
-62
-60
-57
-59
-60
-62
-63
-60
-62
-60
-59
-62
-61
-59
-59
-59
-62
-62
-58
-59
-60
-61
-64
-62
-61
-55
-56
-60
-63
-66
-62
-57
-55
-57
-57
-54
-48
-44
-43
-46
-47
-45
-39
-33
-30
-29
-29
-30
-25
-18
-16
-21
-28
-32
-31
-32
-33
-36
-49
-58
-67
-70
-74
-76
-76
-78
-77
-78
-77
-78
-78
-78
-77
-75
-79
-81
-80
-78
-75
-72
-73
-74
-75
-76
-74
-69
-70
-72
-75
-76
-73
-67
-54
-32
-2
34
75
117
150
178
201
214
219
209
182
149
120
96
68
35
5
-11
-20
-37
-52
-66
-74
-80
-89
-95
-97
-98
-103
-105
-107
-110
-110
-109
-109
-111
-114
-114
-112
-108
-105
-106
-108
-108
-108
-105
-107
-106
-107
-109
-106
-103
-104
-103
-107
-107
-108
-106
-107
-106
-109
-111
-110
-107
-109
-109
-111
-109
-106
-105
-107
-107
-110
-111
-109
-106
-102
-103
-103
-105
-102
-97
-95
-95
-96
-96
-91
-89
-86
-85
-83
-79
-75
-73
-72
-67
-67
-62
-57
-55
-54
-52
-51
-47
-43
-41
-43
-47
-48
-48
-48
-46
-48
-48
-51
-54
-55
-52
-56
-57
-62
-63
-62
-60
-59
-61
-62
-65
-63
-61
-60
-61
-62
-64
-62
-63
-61
-63
-64
-65
-63
-60
-61
-65
-65
-64
-63
-61
-59
-64
-68
-68
-64
-59
-61
-62
-63
-65
-65
-62
-62
-61
-64
-66
-63
-63
-64
-64
-64
-65
-64
-61
-61
-62
-60
-62
-61
-60
-62
-62
-64
-62
-61
-58
-59
-57
-63
-62
-62
-62
-58
-59
-63
-63
-60
-58
-57
-56
-59
-59
-59
-55
-54
-48
-45
-43
-40
-43
-42
-42
-39
-34
-28
-25
-24
-22
-23
-20
-16
-16
-17
-18
-22
-25
-24
-24
-29
-34
-44
-53
-62
-64
-63
-64
-68
-69
-68
-65
-65
-66
-67
-67
-64
-62
-64
-65
-64
-63
-62
-58
-60
-62
-63
-62
-60
-57
-56
-58
-60
-61
-62
-59
-53
-44
-29
-5
28
61
97
133
167
196
217
234
245
248
232
204
177
158
134
106
72
42
29
16
-3
-21
-34
-44
-52
-59
-70
-77
-84
-89
-92
-95
-95
-100
-99
-97
-95
-94
-93
-94
-95
-94
-94
-90
-89
-90
-91
-94
-92
-86
-86
-86
-89
-90
-88
-87
-87
-88
-90
-91
-92
-88
-86
-86
-88
-91
-88
-88
-89
-91
-91
-94
-90
-88
-85
-90
-91
-92
-87
-85
-81
-83
-86
-84
-84
-80
-82
-82
-83
-82
-75
-72
-72
-71
-68
-66
-61
-60
-57
-55
-54
-49
-47
-42
-41
-38
-36
-32
-26
-22
-25
-26
-25
-25
-19
-19
-21
-22
-25
-27
-26
-25
-22
-23
-27
-32
-30
-35
-35
-38
-40
-38
-36
-35
-39
-36
-36
-40
-41
-40
-40
-38
-44
-46
-44
-42
-48
-48
-53
-55
-52
-51
-49
-51
-52
-57
-58
-54
-50
-48
-44
-44
-34
-22
-9
3
14
34
60
87
119
144
165
185
203
231
262
294
321
339
357
359
334
281
216
164
125
82
31
-17
-51
-73
-85
-89
-91
-97
-102
-112
-116
-115
-116
-123
-128
-132
-138
-135
-131
-124
-119
-118
-122
-129
-138
-141
-142
-145
-146
-149
-148
-139
-126
-121
-117
-118
-122
-126
-123
-121
-123
-124
-125
-121
-117
-111
-112
-117
-124
-124
-126
-121
-119
-116
-113
-113
-114
-115
-113
-108
-111
-111
-112
-113
-107
-107
-105
-105
-107
-104
-101
-96
-94
-100
-104
-105
-103
-96
-93
-87
-76
-64
-55
-54
-49
-45
-40
-35
-31
-31
-29
-25
-25
-23
-19
-18
-21
-24
-25
-24
-22
-21
-20
-16
-17
-19
-18
-10
-6
-4
-4
-4
0
2
-2
-1
0
-2
-1
-1
3
4
2
3
3
5
5
3
3
3
6
5
2
-3
-12
-27
-31
-28
-21
-11
-5
1
9
17
19
20
22
22
21
14
7
4
4
7
9
8
4
5
4
1
3
4
2
-4
-6
-5
-5
-3
-6
-8
-11
-13
-11
-12
-10
-13
-11
-13
-12
-16
-17
-17
-20
-18
-19
-16
-18
-16
-18
-19
-15
-15
-15
-13
-14
-13
-12
-13
-12
-11
-13
-15
-19
-20
-22
-24
-23
-21
-22
-17
-9
0
8
8
8
7
6
2
2
2
0
-2
-6
-5
-8
-11
-12
-10
-10
-11
-14
-15
-16
-15
-13
-13
-14
-16
-16
-15
-16
-17
-17
-19
-18
-16
-17
-18
-21
-24
-22
-19
-21
-24
-28
-29
-28
-25
-21
-19
-22
-24
-20
-17
-16
-17
-16
-11
-11
-12
-14
-15
-17
-18
-15
-16
-15
-19
-23
-23
-17
-13
-15
-16
-18
-19
-18
-22
-19
-19
-20
-22
-20
-16
-18
-17
-17
-16
-9
-6
-5
-7
-9
-8
-5
2
2
4
2
2
5
8
12
11
6
2
1
0
-2
-9
-11
-13
-18
-22
-28
-27
-25
-24
-22
-21
-22
-29
-35
-36
-35
-34
-38
-39
-39
-44
-44
-42
-42
-42
-46
-42
-40
-39
-38
-38
-42
-40
-42
-40
-34
-27
-8
19
56
91
126
161
193
215
239
257
262
239
208
180
161
144
123
95
72
58
48
34
13
-3
-14
-19
-26
-33
-42
-44
-51
-55
-60
-60
-64
-67
-71
-71
-69
-69
-67
-69
-65
-65
-64
-62
-61
-65
-67
-66
-66
-64
-62
-64
-66
-67
-70
-70
-69
-69
-67
-73
-71
-67
-63
-64
-67
-70
-65
-62
-62
-62
-67
-69
-67
-64
-64
-65
-65
-66
-62
-59
-58
-58
-58
-53
-51
-47
-45
-44
-43
-40
-35
-32
-28
-30
-28
-24
-21
-17
-14
-10
-8
-9
-1
3
8
8
8
12
17
20
22
17
15
15
14
16
14
12
9
2
2
-3
-3
-6
-8
-13
-14
-16
-16
-21
-25
-27
-24
-27
-29
-34
-35
-37
-36
-36
-38
-39
-41
-40
-40
-40
-42
-45
-44
-45
-44
-43
-43
-43
-45
-42
-43
-37
-36
-36
-36
-37
-34
-29
-27
-30
-34
-33
-30
-28
-25
-25
-25
-25
-24
-19
-16
-20
-22
-19
-15
-12
-11
-14
-15
-11
-7
-6
-6
-5
-7
-10
-7
-5
-4
-4
-3
-2
2
6
11
14
10
9
8
6
9
13
17
23
28
30
29
28
27
29
29
26
24
23
22
18
9
-1
-9
-20
-29
-32
-35
-35
-37
-35
-35
-33
-30
-26
-23
-28
-31
-32
-26
-23
-26
-27
-29
-27
-22
-18
-17
-18
-20
-24
-25
-29
-33
-38
-40
-39
-32
-14
10
41
72
104
141
177
203
227
243
254
260
246
220
192
164
138
107
73
45
24
9
-6
-21
-35
-48
-64
-78
-90
-94
-97
-100
-105
-110
-114
-119
-124
-123
-125
-128
-130
-129
-123
-119
-122
-128
-129
-126
-117
-114
-116
-118
-120
-116
-111
-110
-111
-108
-106
-105
-104
-103
-104
-100
-97
-94
-95
-104
-108
-107
-103
-104
-101
-99
-101
-102
-101
-98
-96
-95
-98
-99
-98
-98
-94
-94
-97
-94
-90
-86
-79
-76
-78
-80
-76
-70
-64
-60
-56
-56
-57
-52
-47
-43
-44
-46
-48
-44
-41
-40
-42
-45
-45
-42
-39
-40
-42
-47
-50
-49
-47
-48
-49
-52
-54
-59
-57
-58
-56
-55
-55
-55
-56
-54
-54
-55
-58
-58
-54
-51
-51
-50
-48
-49
-57
-61
-65
-64
-63
-56
-52
-52
-56
-60
-61
-56
-53
-53
-57
-58
-61
-56
-52
-53
-57
-57
-56
-48
-49
-57
-66
-65
-63
-59
-56
-52
-53
-54
-56
-55
-50
-51
-57
-61
-61
-55
-52
-54
-54
-59
-57
-52
-50
-51
-51
-53
-56
-56
-53
-54
-57
-59
-57
-53
-48
-42
-38
-36
-37
-38
-39
-41
-38
-32
-30
-27
-23
-25
-24
-25
-27
-24
-24
-20
-20
-25
-31
-40
-50
-61
-74
-85
-89
-85
-82
-83
-83
-84
-89
-89
-85
-83
-83
-86
-86
-79
-75
-75
-77
-79
-77
-73
-67
-68
-72
-73
-73
-73
-73
-75
-80
-73
-59
-35
-6
21
53
82
115
153
183
209
226
234
229
211
186
158
133
106
81
59
46
37
16
-8
-27
-37
-42
-51
-68
-81
-93
-99
-103
-108
-111
-114
-113
-108
-104
-103
-100
-102
-102
-108
-112
-115
-115
-112
-109
-105
-104
-103
-103
-108
-111
-106
-101
-105
-111
-115
-113
-109
-105
-102
-102
-104
-104
-105
-104
-100
-98
-97
-103
-104
-102
-103
-99
-95
-92
-97
-102
-107
-111
-109
-105
-101
-98
-94
-92
-89
-89
-85
-79
-73
-73
-75
-74
-70
-68
-67
-67
-70
-70
-68
-60
-49
-42
-42
-48
-52
-54
-52
-53
-53
-57
-54
-53
-51
-51
-52
-56
-58
-60
-63
-69
-78
-80
-75
-74
-70
-68
-71
-73
-73
-71
-71
-73
-78
-77
-71
-70
-68
-67
-67
-70
-73
-71
-72
-73
-77
-79
-76
-77
-75
-77
-78
-79
-77
-76
-77
-79
-79
-80
-77
-76
-76
-74
-75
-78
-76
-76
-69
-73
-72
-70
-69
-65
-62
-59
-61
-62
-66
-66
-60
-58
-63
-70
-70
-69
-64
-66
-65
-64
-63
-60
-59
-54
-50
-49
-50
-53
-58
-53
-45
-35
-25
-21
-21
-21
-18
-10
-9
-12
-12
-16
-20
-25
-29
-40
-51
-62
-70
-71
-68
-67
-66
-66
-68
-74
-74
-70
-66
-63
-64
-67
-60
-54
-50
-53
-54
-57
-56
-50
-46
-41
-44
-45
-45
-42
-44
-42
-29
-7
27
59
84
112
146
181
221
246
259
254
244
224
202
174
141
114
96
84
70
57
37
16
-6
-26
-39
-52
-66
-73
-82
-89
-95
-97
-100
-102
-103
-94
-87
-82
-83
-86
-90
-95
-97
-93
-90
-86
-87
-88
-86
-83
-83
-82
-84
-83
-82
-82
-79
-83
-87
-89
-88
-85
-89
-90
-94
-95
-90
-84
-81
-81
-83
-86
-81
-81
-78
-79
-78
-77
-75
-68
-64
-64
-66
-64
-62
-57
-52
-56
-56
-57
-52
-46
-41
-36
-40
-42
-39
-36
-32
-27
-26
-26
-27
-25
-22
-21
-21
-24
-26
-25
-24
-24
-27
-31
-31
-32
-29
-35
-35
-39
-37
-37
-35
-41
-46
-48
-43
-38
-37
-40
-49
-55
-50
-47
-47
-51
-53
-52
-48
-49
-49
-52
-54
-56
-55
-55
-54
-54
-54
-57
-56
-53
-51
-49
-48
-48
-47
-46
-48
-48
-47
-49
-47
-40
-35
-35
-41
-46
-45
-42
-42
-40
-39
-37
-36
-32
-34
-36
-39
-41
-40
-34
-33
-34
-37
-38
-37
-36
-32
-31
-36
-40
-38
-31
-29
-28
-24
-18
-14
-13
-18
-18
-19
-12
-6
0
1
1
2
3
5
8
4
-1
-7
-6
-3
-4
-16
-33
-45
-51
-50
-51
-52
-55
-56
-55
-51
-49
-50
-52
-56
-55
-53
-53
-54
-55
-55
-53
-51
-48
-49
-47
-52
-55
-55
-57
-57
-59
-56
-47
-23
3
34
70
108
147
179
208
229
241
232
215
192
168
132
98
74
60
52
40
21
0
-20
-38
-52
-63
-72
-80
-90
-94
-97
-98
-99
-102
-106
-110
-106
-102
-99
-97
-97
-100
-97
-93
-95
-97
-94
-94
-91
-89
-85
-86
-90
-91
-88
-87
-88
-88
-90
-94
-91
-87
-89
-91
-92
-94
-93
-94
-91
-88
-88
-91
-90
-87
-87
-88
-90
-89
-88
-87
-86
-83
-89
-90
-86
-82
-81
-78
-79
-78
-75
-71
-70
-69
-67
-70
-65
-59
-55
-55
-56
-55
-52
-49
-48
-48
-49
-50
-49
-49
-55
-61
-65
-70
-71
-69
-67
-66
-67
-72
-72
-71
-68
-66
-67
-69
-66
-64
-62
-64
-65
-65
-66
-68
-68
-67
-69
-73
-73
-70
-70
-70
-69
-72
-71
-65
-64
-64
-66
-67
-64
-64
-67
-68
-71
-67
-64
-58
-57
-60
-65
-67
-64
-63
-60
-61
-63
-63
-60
-57
-54
-55
-58
-59
-59
-59
-61
-59
-62
-63
-59
-57
-58
-59
-65
-66
-63
-62
-65
-65
-62
-63
-58
-55
-52
-53
-53
-51
-49
-44
-42
-43
-47
-46
-40
-38
-31
-29
-36
-32
-25
-19
-20
-24
-32
-38
-34
-36
-41
-47
-56
-70
-77
-80
-82
-85
-84
-79
-76
-78
-76
-75
-77
-78
-79
-77
-74
-77
-79
-81
-80
-77
-77
-76
-79
-76
-74
-73
-73
-77
-81
-85
-83
-83
-75
-60
-39
-10
29
66
103
135
161
186
208
222
215
199
181
160
140
114
87
63
49
41
28
7
-9
-25
-40
-59
-73
-85
-94
-103
-112
-118
-119
-115
-117
-115
-121
-123
-120
-116
-113
-116
-123
-125
-121
-116
-111
-113
-114
-115
-110
-108
-109
-112
-110
-111
-112
-110
-111
-112
-111
-116
-114
-109
-105
-105
-109
-112
-114
-111
-108
-109
-113
-114
-110
-105
-102
-104
-105
-106
-106
-101
-103
-102
-99
-98
-96
-93
-88
-85
-85
-82
-80
-76
-72
-71
-65
-61
-55
-55
-54
-53
-52
-48
-46
-44
-44
-45
-48
-52
-50
-48
-48
-49
-49
-52
-51
-56
-62
-66
-69
-70
-68
-65
-63
-65
-68
-72
-71
-71
-71
-71
-74
-75
-74
-74
-75
-77
-79
-84
-83
-83
-83
-84
-82
-83
-82
-86
-84
-85
-86
-87
-84
-82
-83
-84
-86
-86
-86
-85
-86
-86
-87
-87
-87
-85
-84
-87
-89
-92
-89
-86
-85
-88
-90
-88
-88
-88
-85
-80
-82
-85
-87
-91
-91
-94
-95
-93
-88
-83
-83
-83
-84
-81
-79
-76
-72
-76
-82
-88
-86
-75
-69
-62
-62
-58
-55
-51
-48
-48
-46
-48
-47
-50
-51
-53
-56
-62
-67
-76
-88
-96
-98
-98
-97
-97
-96
-97
-97
-100
-100
-100
-99
-100
-99
-96
-93
-92
-91
-97
-100
-106
-105
-104
-104
-99
-98
-97
-99
-105
-114
-116
-110
-99
-80
-56
-31
3
45
83
121
146
167
182
187
182
164
146
125
105
76
44
21
13
4
-11
-37
-56
-73
-84
-94
-106
-119
-126
-131
-135
-133
-136
-136
-137
-138
-141
-148
-146
-146
-145
-142
-143
-142
-140
-139
-138
-134
-134
-136
-139
-139
-137
-136
-132
-132
-130
-128
-130
-125
-121
-127
-135
-141
-137
-129
-129
-136
-138
-137
-134
-130
-129
-125
-126
-125
-126
-132
-134
-140
-140
-137
-134
-127
-122
-122
-122
-124
-120
-113
-111
-108
-107
-107
-103
-101
-95
-94
-93
-92
-93
-90
-85
-78
-71
-70
-72
-70
-67
-63
-62
-63
-64
-63
-64
-66
-64
-69
-71
-77
-85
-86
-79
-76
-73
-71
-72
-79
-89
-93
-91
-85
-81
-74
-74
-78
-82
-87
-93
-95
-90
-89
-92
-86
-84
-85
-83
-85
-86
-86
-85
-87
-87
-89
-90
-86
-85
-81
-81
-86
-93
-94
-89
-84
-86
-88
-90
-87
-81
-78
-81
-87
-95
-94
-89
-81
-82
-88
-89
-85
-83
-80
-82
-85
-89
-85
-83
-80
-82
-85
-86
-88
-83
-79
-82
-87
-86
-83
-80
-80
-83
-80
-76
-71
-65
-61
-59
-63
-68
-68
-58
-49
-42
-46
-48
-48
-40
-36
-36
-40
-48
-50
-51
-51
-55
-60
-67
-76
-82
-89
-90
-90
-96
-93
-93
-94
-94
-93
-94
-92
-88
-88
-86
-90
-88
-86
-84
-88
-90
-93
-87
-82
-80
-80
-84
-91
-95
-94
-88
-73
-54
-34
-11
19
51
86
119
151
180
205
214
207
186
164
140
120
97
64
37
20
9
-1
-17
-38
-53
-67
-81
-88
-98
-106
-113
-114
-118
-118
-120
-119
-120
-119
-113
-114
-113
-115
-116
-117
-118
-116
-111
-113
-115
-118
-118
-115
-111
-110
-114
-119
-119
-116
-117
-111
-111
-114
-115
-117
-111
-111
-110
-113
-118
-117
-113
-111
-114
-113
-115
-113
-111
-114
-117
-115
-113
-110
-111
-109
-106
-108
-105
-99
-93
-93
-93
-94
-97
-92
-83
-80
-78
-75
-75
-69
-68
-65
-67
-65
-64
-56
-54
-52
-54
-56
-56
-54
-50
-47
-47
-47
-50
-49
-51
-55
-58
-62
-65
-63
-61
-61
-60
-61
-62
-61
-60
-59
-63
-68
-70
-72
-72
-72
-69
-67
-67
-66
-64
-66
-71
-75
-75
-73
-75
-75
-75
-73
-72
-70
-65
-70
-74
-80
-82
-77
-74
-69
-69
-74
-76
-76
-72
-69
-66
-72
-74
-74
-76
-74
-68
-71
-73
-71
-69
-66
-69
-68
-70
-68
-66
-64
-67
-75
-77
-73
-68
-62
-66
-70
-69
-68
-64
-61
-63
-69
-72
-69
-62
-56
-51
-54
-55
-55
-51
-47
-46
-44
-40
-40
-39
-36
-32
-28
-25
-22
-21
-25
-29
-36
-39
-33
-29
-30
-38
-50
-61
-71
-77
-76
-76
-78
-78
-76
-72
-71
-71
-77
-80
-82
-82
-77
-72
-72
-75
-75
-73
-73
-75
-75
-72
-68
-66
-67
-72
-72
-74
-72
-72
-72
-63
-47
-19
13
44
74
110
144
175
202
218
235
235
222
196
172
147
126
98
67
39
26
16
0
-16
-32
-43
-54
-64
-78
-88
-94
-95
-90
-88
-90
-95
-102
-105
-104
-107
-108
-102
-98
-97
-95
-93
-95
-96
-98
-100
-95
-92
-95
-95
-100
-99
-98
-97
-96
-101
-101
-99
-92
-92
-96
-98
-101
-99
-94
-88
-89
-92
-101
-102
-101
-100
-96
-94
-96
-96
-97
-97
-95
-96
-98
-100
-95
-93
-90
-92
-89
-89
-85
-84
-84
-83
-80
-79
-74
-72
-70
-67
-63
-62
-57
-52
-46
-45
-43
-46
-41
-40
-39
-40
-43
-43
-42
-38
-35
-37
-40
-40
-41
-42
-41
-42
-46
-49
-51
-54
-53
-55
-54
-52
-53
-54
-56
-61
-61
-63
-60
-58
-59
-62
-63
-61
-61
-59
-64
-66
-65
-67
-66
-66
-68
-70
-69
-65
-66
-63
-67
-71
-76
-78
-71
-69
-65
-68
-68
-74
-74
-73
-71
-73
-74
-74
-69
-64
-64
-68
-71
-75
-73
-71
-69
-68
-70
-70
-68
-64
-69
-70
-69
-66
-63
-62
-62
-61
-69
-74
-77
-74
-72
-68
-66
-68
-64
-63
-62
-65
-64
-66
-62
-54
-48
-45
-49
-51
-54
-54
-53
-46
-41
-37
-31
-26
-28
-34
-37
-35
-30
-25
-26
-28
-31
-32
-32
-37
-46
-58
-71
-77
-75
-73
-72
-75
-73
-78
-79
-80
-80
-78
-78
-77
-75
-72
-70
-74
-77
-79
-78
-74
-71
-70
-71
-69
-67
-66
-69
-70
-72
-75
-75
-67
-57
-42
-18
6
37
71
104
136
162
188
211
231
239
235
215
191
164
142
114
78
50
33
22
8
-13
-35
-50
-63
-72
-79
-84
-92
-98
-105
-111
-111
-109
-112
-110
-113
-115
-116
-114
-109
-107
-107
-105
-103
-99
-103
-106
-111
-109
-109
-108
-108
-110
-108
-105
-102
-101
-102
-103
-101
-100
-101
-105
-108
-110
-109
-108
-106
-102
-103
-104
-104
-104
-105
-108
-108
-104
-103
-102
-102
-102
-101
-99
-100
-97
-97
-98
-97
-92
-86
-83
-81
-81
-82
-83
-79
-75
-67
-66
-62
-64
-63
-55
-50
-46
-40
-38
-39
-43
-46
-46
-43
-43
-45
-44
-45
-45
-48
-52
-54
-54
-49
-48
-50
-52
-54
-55
-59
-62
-62
-62
-61
-55
-55
-59
-64
-67
-67
-62
-59
-60
-64
-69
-69
-65
-62
-63
-63
-66
-67
-68
-69
-72
-72
-77
-77
-74
-69
-67
-68
-69
-74
-76
-75
-69
-66
-68
-72
-72
-71
-68
-65
-68
-69
-67
-67
-66
-68
-70
-72
-68
-68
-68
-71
-74
-75
-67
-64
-63
-64
-67
-69
-64
-61
-61
-62
-66
-68
-67
-61
-57
-58
-58
-56
-51
-47
-42
-43
-41
-48
-50
-47
-41
-31
-29
-32
-29
-29
-25
-25
-28
-34
-34
-32
-31
-38
-48
-56
-61
-65
-71
-73
-78
-83
-80
-80
-78
-73
-71
-76
-82
-81
-80
-75
-78
-75
-72
-68
-69
-71
-75
-77
-75
-73
-70
-69
-70
-72
-76
-75
-72
-63
-41
-14
21
56
91
126
163
191
213
232
246
242
223
195
170
147
122
86
55
35
22
6
-14
-34
-50
-65
-76
-86
-93
-97
-100
-104
-104
-106
-110
-112
-116
-118
-114
-109
-109
-109
-108
-106
-104
-101
-103
-106
-108
-108
-105
-104
-102
-101
-101
-101
-100
-97
-98
-98
-104
-112
-113
-107
-104
-100
-101
-101
-99
-97
-98
-103
-103
-102
-97
-94
-95
-96
-96
-97
-93
-90
-90
-88
-85
-82
-79
-77
-75
-73
-73
-76
-75
-69
-62
-59
-59
-59
-51
-47
-41
-37
-35
-34
-30
-24
-19
-19
-19
-24
-26
-28
-30
-31
-32
-34
-34
-29
-29
-30
-38
-46
-48
-43
-44
-45
-45
-47
-45
-44
-43
-41
-45
-52
-54
-49
-46
-49
-52
-54
-52
-52
-55
-57
-58
-59
-51
-47
-45
-48
-54
-58
-61
-58
-56
-55
-55
-55
-52
-53
-54
-55
-54
-53
-52
-49
-49
-51
-53
-54
-54
-52
-54
-54
-52
-50
-45
-47
-52
-53
-53
-49
-47
-49
-48
-50
-52
-51
-48
-47
-50
-55
-55
-53
-46
-36
-31
-26
-26
-31
-35
-35
-32
-26
-24
-22
-16
-13
-8
-5
-7
-11
-17
-20
-20
-19
-24
-31
-38
-49
-54
-58
-61
-62
-61
-57
-57
-59
-63
-64
-64
-62
-58
-60
-60
-56
-53
-46
-46
-53
-66
-67
-58
-49
-49
-51
-53
-53
-50
-38
-19
17
57
99
143
185
213
238
257
267
259
229
197
167
135
98
68
51
37
18
-5
-25
-36
-45
-57
-68
-78
-84
-93
-99
-99
-96
-96
-92
-88
-89
-95
-101
-102
-97
-90
-87
-88
-91
-91
-90
-90
-90
-90
-90
-92
-91
-90
-91
-92
-93
-95
-97
-93
-91
-88
-88
-91
-97
-97
-94
-92
-92
-96
-94
-90
-89
-89
-89
-90
-93
-92
-95
-90
-85
-79
-75
-73
-70
-71
-72
-70
-71
-67
-61
-53
-52
-52
-51
-48
-42
-39
-40
-39
-40
-33
-32
-33
-36
-39
-41
-40
-36
-36
-34
-39
-48
-50
-48
-48
-47
-48
-48
-47
-47
-51
-57
-62
-61
-58
-54
-52
-55
-59
-64
-64
-64
-64
-63
-62
-62
-59
-59
-59
-63
-65
-67
-63
-64
-63
-67
-69
-67
-67
-65
-63
-68
-72
-72
-67
-63
-61
-62
-63
-63
-61
-62
-60
-63
-63
-67
-64
-63
-63
-60
-64
-64
-65
-66
-68
-66
-65
-63
-62
-60
-57
-59
-59
-61
-62
-63
-64
-63
-60
-55
-51
-51
-48
-47
-46
-51
-51
-47
-41
-33
-29
-29
-27
-26
-21
-18
-18
-28
-32
-33
-30
-28
-32
-40
-45
-57
-64
-75
-76
-78
-73
-70
-69
-68
-64
-67
-69
-70
-75
-74
-70
-67
-65
-67
-69
-63
-64
-69
-71
-66
-60
-59
-63
-69
-72
-64
-59
-43
-17
16
58
103
149
186
214
232
243
240
219
194
169
147
121
89
60
41
31
20
1
-22
-41
-55
-67
-81
-88
-91
-95
-95
-98
-100
-103
-105
-109
-112
-109
-107
-104
-102
-102
-103
-102
-102
-101
-100
-101
-103
-102
-101
-96
-92
-94
-99
-102
-105
-102
-97
-98
-99
-101
-102
-102
-97
-92
-93
-101
-104
-101
-97
-99
-97
-97
-96
-92
-91
-91
-92
-93
-92
-88
-82
-80
-79
-79
-78
-73
-68
-67
-63
-62
-61
-56
-53
-51
-51
-48
-44
-38
-34
-34
-33
-39
-39
-32
-27
-27
-31
-37
-40
-34
-35
-38
-42
-44
-44
-44
-44
-49
-51
-50
-46
-43
-46
-50
-52
-54
-54
-52
-50
-48
-56
-60
-59
-55
-51
-53
-53
-55
-54
-54
-52
-55
-58
-61
-63
-62
-61
-59
-61
-61
-60
-55
-52
-53
-54
-56
-52
-47
-33
-16
4
23
47
78
116
149
178
204
229
263
295
322
346
364
373
360
318
255
191
132
73
15
-34
-68
-93
-109
-117
-120
-119
-118
-114
-113
-111
-109
-103
-104
-103
-107
-109
-106
-103
-104
-110
-113
-115
-116
-116
-115
-116
-116
-112
-109
-103
-106
-107
-109
-107
-104
-101
-104
-109
-113
-119
-118
-120
-117
-114
-117
-115
-112
-111
-115
-119
-122
-124
-122
-120
-117
-115
-115
-118
-116
-114
-112
-112
-115
-113
-109
-104
-103
-102
-101
-99
-96
-93
-92
-90
-90
-89
-84
-78
-73
-71
-68
-64
-61
-55
-53
-51
-51
-51
-45
-42
-40
-40
-39
-40
-38
-39
-38
-38
-37
-39
-42
-46
-47
-44
-45
-44
-46
-42
-42
-45
-47
-49
-44
-39
-40
-39
-46
-52
-50
-41
-35
-37
-40
-43
-50
-53
-50
-47
-44
-49
-48
-45
-45
-46
-47
-49
-45
-45
-44
-44
-45
-48
-46
-43
-43
-46
-47
-49
-46
-45
-46
-46
-45
-45
-42
-42
-45
-49
-51
-51
-44
-40
-39
-40
-42
-45
-45
-47
-46
-46
-47
-50
-44
-43
-40
-40
-42
-42
-38
-36
-36
-38
-41
-44
-42
-38
-35
-37
-39
-34
-33
-31
-30
-32
-37
-37
-35
-32
-27
-30
-34
-35
-32
-30
-31
-33
-37
-37
-32
-29
-31
-33
-36
-36
-34
-31
-31
-31
-31
-34
-33
-32
-28
-32
-31
-31
-28
-28
-30
-32
-36
-38
-38
-35
-32
-27
-28
-29
-33
-35
-33
-35
-34
-34
-33
-30
-30
-33
-33
-31
-29
-26
-27
-29
-31
-31
-28
-26
-24
-22
-24
-27
-31
-33
-35
-32
-33
-35
-31
-24
-19
-17
-11
-12
-11
-10
-13
-8
-5
-1
3
8
8
10
6
7
10
12
12
9
5
0
-5
-6
-10
-15
-25
-33
-38
-39
-38
-44
-45
-45
-44
-41
-40
-38
-40
-45
-41
-41
-41
-36
-35
-35
-37
-36
-35
-35
-34
-30
-25
-26
-31
-36
-37
-33
-22
-6
14
43
77
118
163
198
225
245
261
266
258
235
210
184
164
145
125
99
75
58
47
28
11
-4
-18
-33
-48
-62
-71
-73
-72
-74
-79
-86
-84
-79
-80
-81
-84
-86
-83
-82
-82
-83
-83
-83
-79
-78
-77
-80
-78
-79
-76
-73
-76
-81
-83
-82
-79
-75
-70
-72
-78
-85
-84
-81
-77
-75
-77
-78
-79
-77
-74
-74
-75
-74
-73
-73
-73
-76
-77
-75
-68
-60
-53
-50
-57
-63
-60
-54
-49
-46
-44
-40
-36
-32
-30
-30
-27
-28
-20
-14
-10
-7
-7
-3
2
9
10
6
4
2
4
12
15
17
13
8
6
6
8
8
6
5
-2
-4
-4
-8
-12
-18
-16
-17
-17
-23
-28
-33
-35
-32
-32
-37
-39
-39
-35
-34
-34
-38
-40
-41
-39
-35
-39
-43
-47
-49
-49
-44
-43
-45
-47
-50
-51
-46
-44
-44
-44
-49
-47
-46
-45
-47
-48
-50
-48
-47
-46
-46
-45
-45
-44
-43
-42
-43
-45
-43
-43
-38
-40
-45
-50
-49
-45
-44
-44
-40
-43
-45
-43
-42
-43
-43
-42
-46
-43
-39
-35
-33
-32
-29
-24
-20
-21
-24
-25
-23
-18
-11
-6
-5
-4
-6
-6
-7
-5
-4
-6
-9
-6
-2
-1
-3
-9
-17
-29
-40
-52
-58
-59
-61
-58
-54
-56
-58
-60
-63
-59
-54
-54
-53
-55
-56
-55
-50
-48
-50
-50
-52
-52
-49
-44
-44
-48
-53
-54
-49
-47
-48
-49
-47
-43
-29
-6
22
56
90
125
162
193
217
235
246
255
244
221
199
177
157
136
107
79
59
44
29
12
-1
-15
-31
-41
-53
-62
-68
-72
-71
-75
-83
-87
-90
-89
-88
-90
-90
-88
-85
-86
-84
-85
-85
-83
-78
-76
-78
-81
-87
-91
-86
-81
-79
-81
-83
-87
-84
-78
-78
-83
-86
-85
-81
-76
-74
-76
-79
-81
-81
-83
-84
-85
-85
-87
-84
-83
-78
-80
-80
-79
-74
-73
-72
-75
-79
-78
-77
-71
-70
-68
-66
-66
-65
-61
-59
-58
-56
-48
-43
-40
-41
-43
-41
-37
-30
-28
-30
-27
-24
-22
-23
-23
-24
-23
-23
-20
-16
-14
-17
-22
-28
-29
-32
-32
-29
-29
-30
-28
-28
-29
-32
-37
-41
-38
-37
-33
-36
-36
-38
-37
-39
-42
-44
-49
-47
-47
-42
-40
-39
-43
-46
-43
-40
-42
-45
-48
-50
-49
-46
-41
-42
-46
-51
-47
-46
-45
-41
-46
-45
-42
-41
-41
-46
-45
-46
-45
-41
-40
-43
-44
-43
-40
-37
-39
-40
-45
-46
-48
-46
-50
-47
-47
-47
-46
-46
-45
-44
-46
-44
-41
-39
-40
-42
-44
-41
-39
-36
-30
-26
-24
-22
-23
-19
-20
-18
-18
-12
-7
-1
2
3
4
4
9
6
3
-2
-4
-5
-8
-14
-28
-44
-55
-63
-58
-56
-54
-54
-54
-56
-55
-53
-52
-52
-54
-57
-54
-49
-48
-49
-53
-54
-50
-49
-47
-50
-49
-50
-48
-46
-45
-50
-54
-60
-55
-44
-23
4
37
70
109
150
188
218
238
255
257
248
225
197
173
147
119
93
74
59
40
18
4
-9
-23
-42
-60
-71
-73
-72
-73
-78
-87
-93
-92
-91
-90
-90
-93
-93
-91
-91
-88
-87
-87
-88
-87
-89
-87
-88
-87
-86
-85
-83
-81
-77
-80
-85
-91
-91
-90
-85
-84
-85
-83
-81
-83
-89
-90
-90
-89
-84
-83
-83
-83
-82
-81
-83
-82
-81
-79
-78
-80
-80
-82
-81
-78
-75
-68
-64
-62
-62
-62
-62
-59
-57
-51
-47
-47
-48
-40
-34
-28
-25
-25
-26
-26
-23
-19
-16
-14
-16
-14
-13
-10
-11
-14
-17
-21
-21
-20
-22
-23
-29
-27
-28
-32
-34
-38
-38
-38
-35
-36
-39
-36
-37
-37
-37
-37
-36
-35
-40
-39
-38
-38
-39
-38
-45
-42
-40
-35
-35
-37
-43
-49
-52
-50
-45
-44
-48
-45
-47
-41
-42
-44
-48
-48
-46
-43
-44
-44
-43
-44
-44
-46
-45
-48
-48
-46
-43
-46
-48
-48
-48
-45
-42
-41
-42
-45
-48
-51
-53
-51
-52
-53
-58
-58
-56
-52
-47
-52
-55
-55
-52
-45
-38
-35
-35
-35
-30
-31
-34
-39
-40
-31
-23
-17
-19
-21
-20
-9
-7
-8
-12
-15
-13
-11
-12
-16
-28
-38
-46
-53
-57
-59
-64
-69
-70
-66
-64
-64
-61
-60
-62
-68
-60
-57
-57
-56
-62
-63
-64
-61
-59
-54
-53
-53
-52
-52
-56
-57
-59
-56
-54
-49
-32
-3
36
78
117
154
189
215
238
262
272
259
236
213
187
163
132
98
73
55
40
27
9
-10
-29
-47
-58
-68
-74
-81
-86
-91
-96
-99
-96
-95
-95
-96
-96
-90
-89
-89
-89
-90
-91
-86
-84
-81
-82
-88
-93
-96
-89
-83
-84
-87
-90
-88
-81
-82
-88
-93
-94
-90
-87
-86
-89
-88
-91
-90
-90
-89
-88
-89
-88
-92
-91
-86
-82
-76
-74
-80
-81
-81
-78
-74
-72
-68
-61
-61
-64
-62
-60
-52
-46
-48
-48
-43
-40
-34
-27
-22
-23
-23
-22
-24
-21
-21
-23
-23
-26
-24
-25
-24
-25
-23
-25
-29
-34
-39
-40
-39
-39
-41
-40
-39
-39
-41
-44
-42
-42
-43
-45
-45
-46
-42
-42
-44
-46
-49
-51
-50
-49
-51
-50
-50
-49
-50
-46
-45
-45
-46
-48
-48
-47
-46
-45
-48
-49
-52
-47
-45
-49
-47
-48
-46
-46
-45
-47
-48
-50
-49
-48
-47
-46
-49
-49
-48
-45
-44
-47
-44
-49
-49
-48
-45
-44
-45
-45
-44
-40
-39
-38
-38
-37
-37
-36
-31
-27
-25
-22
-20
-20
-24
-22
-15
-8
-3
0
2
4
5
8
10
13
13
11
6
3
-2
-8
-15
-24
-32
-37
-38
-38
-38
-39
-42
-46
-45
-40
-38
-38
-40
-46
-46
-41
-39
-39
-40
-43
-39
-39
-35
-34
-31
-33
-36
-39
-39
-37
-40
-41
-38
-23
2
34
65
92
125
161
197
222
237
246
245
232
210
184
164
146
121
93
70
55
39
21
9
-5
-20
-35
-48
-61
-62
-65
-70
-76
-78
-84
-84
-80
-78
-78
-79
-82
-78
-73
-73
-73
-72
-72
-73
-77
-74
-75
-75
-78
-75
-76
-72
-73
-74
-74
-73
-76
-74
-75
-77
-77
-72
-72
-72
-76
-78
-79
-77
-74
-77
-81
-80
-77
-75
-74
-73
-72
-67
-68
-66
-68
-66
-59
-58
-62
-66
-70
-63
-55
-50
-51
-45
-43
-41
-40
-39
-35
-32
-24
-22
-21
-20
-19
-12
-13
-16
-18
-18
-15
-12
-10
-10
-10
-15
-22
-22
-21
-22
-22
-26
-26
-27
-26
-26
-28
-31
-30
-29
-27
-29
-30
-32
-33
-33
-34
-32
-32
-34
-34
-33
-29
-29
-30
-33
-36
-36
-38
-41
-42
-38
-39
-38
-38
-37
-39
-38
-35
-33
-36
-38
-40
-43
-38
-37
-35
-34
-35
-35
-37
-37
-36
-36
-37
-37
-40
-36
-30
-27
-27
-35
-42
-48
-46
-37
-31
-31
-30
-35
-34
-34
-35
-34
-40
-38
-42
-36
-34
-32
-28
-23
-16
-7
-7
-9
-13
-15
-12
-13
-12
-12
-8
-1
2
5
8
5
1
0
1
2
0
-5
-15
-22
-30
-35
-46
-51
-52
-50
-51
-52
-51
-55
-54
-49
-47
-44
-45
-44
-46
-46
-44
-43
-44
-42
-43
-44
-41
-42
-41
-39
-39
-40
-45
-45
-47
-47
-37
-16
13
46
82
116
153
189
218
243
263
273
258
230
204
185
163
136
103
82
62
43
20
-1
-14
-21
-26
-36
-49
-64
-72
-75
-77
-78
-80
-78
-85
-83
-80
-76
-77
-80
-84
-81
-78
-77
-77
-77
-78
-75
-74
-72
-73
-75
-78
-75
-73
-73
-74
-75
-75
-72
-70
-69
-70
-72
-77
-80
-81
-77
-71
-70
-72
-72
-71
-68
-67
-71
-75
-76
-74
-73
-70
-68
-68
-66
-63
-59
-57
-58
-56
-55
-54
-47
-40
-35
-37
-39
-38
-32
-27
-22
-21
-13
-9
-8
-8
-16
-20
-16
-10
-6
-4
-5
-7
-8
-9
-7
-11
-18
-22
-23
-21
-22
-23
-27
-33
-34
-30
-28
-29
-29
-32
-34
-33
-37
-41
-42
-41
-39
-35
-39
-44
-46
-45
-40
-36
-40
-42
-47
-51
-55
-49
-48
-51
-50
-51
-48
-46
-46
-48
-51
-53
-49
-48
-47
-45
-46
-50
-51
-52
-52
-51
-52
-52
-51
-50
-50
-50
-54
-56
-56
-54
-53
-53
-54
-54
-51
-47
-48
-51
-52
-50
-47
-44
-44
-44
-46
-46
-42
-36
-30
-27
-29
-29
-26
-23
-19
-19
-24
-26
-17
-11
-4
-2
-4
-7
-10
-13
-18
-16
-18
-26
-31
-39
-48
-55
-57
-60
-62
-65
-66
-66
-63
-60
-58
-57
-61
-63
-62
-59
-57
-58
-57
-59
-57
-56
-53
-50
-48
-52
-57
-63
-67
-61
-50
-34
-7
24
64
106
148
187
215
240
258
258
238
213
189
162
133
97
69
51
39
15
-4
-24
-39
-54
-66
-78
-86
-87
-91
-93
-95
-98
-96
-99
-100
-101
-101
-101
-98
-95
-93
-93
-93
-95
-95
-94
-93
-96
-94
-91
-90
-87
-89
-88
-91
-95
-96
-96
-95
-92
-91
-92
-93
-90
-89
-91
-95
-97
-94
-90
-88
-89
-90
-89
-86
-84
-83
-82
-83
-81
-77
-74
-71
-71
-65
-64
-62
-59
-53
-50
-47
-48
-45
-41
-35
-35
-36
-37
-33
-28
-27
-28
-31
-34
-34
-31
-31
-31
-34
-38
-40
-40
-38
-39
-45
-50
-52
-51
-47
-47
-51
-55
-57
-57
-53
-55
-55
-59
-59
-55
-54
-54
-59
-62
-64
-63
-61
-59
-59
-60
-62
-62
-62
-63
-60
-63
-63
-61
-61
-60
-60
-63
-61
-57
-56
-56
-60
-63
-61
-57
-55
-57
-60
-60
-56
-53
-53
-57
-58
-62
-59
-54
-54
-55
-60
-61
-60
-60
-59
-58
-58
-59
-53
-53
-53
-56
-55
-59
-56
-52
-51
-48
-47
-44
-40
-39
-39
-43
-41
-36
-27
-21
-21
-20
-20
-19
-13
-9
-9
-14
-19
-25
-26
-25
-29
-37
-48
-57
-64
-67
-65
-68
-70
-72
-72
-71
-71
-71
-70
-67
-63
-65
-66
-68
-67
-66
-69
-65
-64
-65
-65
-61
-57
-54
-64
-76
-81
-71
-50
-23
11
46
84
121
161
196
221
234
229
206
182
165
147
124
91
59
43
32
24
7
-13
-33
-46
-56
-63
-72
-85
-96
-97
-98
-99
-99
-101
-103
-102
-100
-97
-99
-105
-106
-100
-94
-92
-94
-96
-96
-96
-97
-96
-92
-91
-91
-94
-95
-96
-95
-96
-97
-96
-96
-96
-95
-97
-101
-101
-99
-96
-95
-93
-93
-95
-96
-94
-97
-99
-97
-88
-85
-89
-90
-92
-89
-79
-74
-75
-76
-75
-70
-66
-59
-57
-56
-54
-53
-51
-45
-40
-36
-36
-38
-39
-38
-33
-29
-31
-39
-46
-44
-39
-37
-40
-43
-44
-44
-47
-49
-56
-55
-54
-53
-51
-53
-55
-54
-52
-53
-53
-55
-57
-56
-56
-54
-55
-56
-56
-58
-59
-59
-59
-56
-57
-59
-61
-60
-58
-60
-61
-60
-59
-58
-59
-59
-58
-61
-63
-57
-56
-57
-61
-61
-60
-60
-58
-61
-59
-58
-58
-60
-56
-54
-59
-62
-59
-59
-59
-55
-55
-57
-59
-58
-60
-60
-58
-56
-56
-52
-54
-55
-57
-53
-48
-44
-40
-37
-33
-35
-35
-40
-38
-32
-24
-21
-17
-16
-16
-14
-16
-17
-18
-16
-17
-17
-21
-26
-29
-37
-46
-60
-67
-71
-68
-65
-64
-62
-61
-65
-66
-67
-66
-67
-71
-68
-63
-59
-62
-65
-66
-64
-65
-59
-55
-56
-59
-59
-57
-55
-53
-58
-64
-64
-50
-22
14
51
84
119
160
200
229
246
247
236
214
197
179
157
134
101
70
54
41
25
-2
-22
-36
-46
-56
-67
-79
-87
-87
-87
-87
-95
-101
-103
-102
-103
-103
-97
-98
-102
-101
-100
-95
-91
-93
-94
-94
-89
-91
-92
-96
-96
-92
-92
-93
-93
-94
-95
-94
-93
-91
-90
-92
-95
-93
-90
-90
-88
-91
-90
-89
-87
-84
-87
-87
-89
-87
-85
-81
-80
-82
-79
-75
-71
-70
-69
-68
-62
-57
-54
-55
-54
-53
-50
-47
-44
-40
-37
-32
-33
-31
-31
-29
-25
-25
-27
-22
-20
-19
-22
-28
-29
-27
-23
-21
-26
-37
-42
-42
-35
-37
-36
-42
-45
-46
-46
-43
-45
-47
-50
-47
-41
-40
-41
-47
-54
-56
-56
-51
-49
-49
-51
-51
-51
-50
-54
-55
-56
-53
-48
-49
-53
-56
-57
-52
-48
-48
-52
-57
-59
-56
-52
-50
-52
-57
-57
-53
-48
-49
-54
-55
-54
-51
-49
-50
-51
-52
-53
-51
-49
-47
-51
-51
-56
-51
-51
-51
-49
-50
-49
-48
-49
-46
-44
-42
-41
-36
-32
-29
-33
-35
-36
-33
-27
-21
-18
-17
-18
-15
-12
-7
-7
-13
-19
-24
-25
-22
-21
-25
-35
-42
-52
-58
-61
-60
-63
-64
-63
-64
-63
-63
-62
-64
-66
-65
-66
-67
-63
-62
-60
-62
-63
-65
-60
-59
-55
-52
-52
-57
-62
-62
-60
-62
-59
-53
-42
-20
9
42
75
113
151
190
217
236
242
228
205
179
158
140
115
83
50
33
27
22
13
-4
-25
-43
-56
-66
-75
-81
-84
-86
-87
-88
-91
-93
-95
-93
-94
-93
-94
-94
-95
-93
-93
-90
-92
-93
-95
-93
-88
-87
-88
-89
-95
-96
-90
-85
-85
-88
-92
-95
-93
-92
-93
-94
-93
-89
-87
-86
-89
-88
-89
-90
-89
-88
-89
-88
-90
-89
-89
-86
-84
-86
-85
-83
-80
-78
-80
-78
-77
-75
-74
-73
-70
-68
-66
-61
-55
-52
-51
-49
-51
-47
-40
-37
-32
-32
-31
-29
-25
-23
-24
-24
-27
-24
-23
-20
-21
-27
-33
-32
-26
-23
-25
-29
-35
-36
-39
-38
-36
-34
-31
-31
-26
-25
-27
-34
-44
-45
-41
-34
-32
-37
-37
-38
-33
-31
-37
-39
-43
-41
-36
-35
-36
-38
-41
-38
-36
-32
-37
-43
-43
-40
-37
-38
-36
-37
-38
-40
-37
-35
-34
-37
-42
-41
-39
-41
-37
-37
-34
-38
-40
-38
-42
-42
-42
-36
-35
-37
-42
-45
-42
-36
-32
-33
-35
-39
-37
-34
-29
-23
-23
-30
-38
-36
-29
-17
-11
-10
-14
-14
-10
-5
-2
-3
-4
0
3
7
11
7
5
5
3
4
3
-3
-10
-17
-24
-29
-37
-46
-52
-54
-57
-53
-51
-50
-51
-46
-44
-42
-51
-55
-57
-56
-57
-52
-51
-51
-48
-46
-44
-45
-45
-46
-45
-42
-42
-43
-46
-49
-46
-31
-10
19
51
84
119
159
197
226
251
265
259
235
207
183
163
143
110
81
61
52
34
15
-6
-19
-29
-38
-47
-59
-72
-80
-80
-80
-79
-80
-87
-85
-84
-87
-90
-89
-88
-86
-83
-85
-88
-89
-87
-86
-80
-78
-80
-82
-86
-85
-85
-84
-86
-85
-86
-87
-82
-80
-82
-84
-88
-88
-87
-83
-84
-84
-88
-87
-82
-79
-78
-81
-86
-85
-83
-79
-77
-76
-76
-73
-71
-75
-78
-75
-75
-72
-64
-64
-63
-64
-60
-55
-52
-48
-47
-46
-42
-40
-35
-33
-32
-32
-33
-32
-26
-20
-16
-18
-21
-19
-15
-12
-14
-18
-20
-17
-13
-14
-19
-28
-37
-35
-34
-31
-34
-34
-38
-39
-36
-35
-37
-42
-42
-44
-44
-45
-48
-48
-49
-47
-44
-42
-44
-45
-49
-45
-43
-40
-41
-46
-47
-50
-47
-48
-49
-49
-50
-49
-47
-47
-47
-50
-48
-47
-46
-50
-52
-55
-55
-55
-49
-45
-45
-48
-53
-56
-54
-49
-48
-47
-50
-50
-46
-45
-43
-50
-58
-58
-55
-48
-44
-43
-46
-48
-52
-53
-55
-55
-52
-50
-47
-46
-45
-49
-50
-45
-39
-34
-29
-26
-28
-29
-29
-30
-27
-24
-22
-18
-14
-11
-12
-9
-11
-11
-13
-10
-11
-14
-22
-28
-34
-39
-46
-57
-63
-66
-63
-63
-62
-67
-67
-64
-63
-64
-65
-68
-66
-63
-61
-62
-66
-66
-63
-57
-54
-53
-56
-57
-61
-60
-59
-59
-61
-66
-63
-56
-38
-14
18
53
93
135
169
193
217
240
253
259
243
216
184
155
124
92
67
50
37
19
-4
-22
-29
-36
-50
-63
-79
-88
-94
-94
-95
-99
-105
-106
-104
-105
-104
-103
-102
-102
-102
-101
-97
-98
-103
-102
-100
-97
-95
-96
-98
-97
-97
-96
-97
-99
-98
-99
-94
-97
-102
-103
-103
-101
-95
-94
-94
-98
-101
-99
-98
-99
-101
-103
-102
-101
-99
-94
-92
-93
-95
-91
-90
-88
-87
-86
-85
-84
-82
-77
-76
-76
-75
-72
-67
-67
-66
-61
-56
-49
-47
-49
-50
-51
-45
-36
-32
-31
-35
-38
-36
-31
-27
-28
-31
-32
-35
-36
-34
-37
-41
-46
-48
-47
-47
-46
-51
-54
-57
-57
-57
-53
-54
-55
-56
-54
-55
-59
-61
-63
-65
-65
-61
-60
-62
-64
-65
-65
-63
-60
-58
-62
-64
-65
-64
-62
-64
-68
-71
-72
-68
-68
-67
-67
-68
-72
-71
-69
-68
-68
-69
-69
-67
-63
-65
-68
-66
-66
-64
-62
-66
-71
-74
-72
-70
-68
-69
-72
-71
-70
-67
-66
-68
-68
-67
-66
-68
-65
-66
-69
-73
-73
-68
-61
-58
-57
-59
-58
-56
-53
-52
-51
-52
-50
-43
-37
-34
-38
-36
-33
-29
-26
-24
-25
-26
-27
-27
-31
-30
-32
-40
-47
-57
-66
-74
-78
-78
-78
-77
-77
-77
-82
-83
-82
-78
-74
-73
-74
-72
-74
-79
-76
-74
-74
-76
-77
-74
-70
-71
-72
-71
-70
-69
-67
-69
-71
-71
-55
-32
2
36
66
98
141
178
209
229
239
232
209
187
166
143
124
90
55
30
14
7
-8
-27
-47
-53
-61
-71
-83
-95
-102
-99
-97
-100
-102
-104
-104
-104
-108
-106
-107
-107
-102
-97
-96
-98
-100
-100
-98
-97
-96
-96
-98
-98
-96
-89
-89
-94
-99
-107
-106
-97
-90
-85
-91
-99
-97
-96
-96
-97
-97
-96
-91
-91
-91
-88
-91
-90
-91
-89
-87
-88
-85
-85
-82
-76
-75
-76
-74
-73
-68
-65
-67
-65
-64
-58
-54
-49
-50
-51
-48
-41
-37
-32
-28
-28
-34
-36
-33
-31
-29
-27
-28
-32
-34
-38
-38
-42
-43
-48
-46
-42
-40
-42
-39
-47
-49
-52
-47
-48
-49
-50
-50
-46
-48
-48
-48
-53
-53
-52
-51
-50
-51
-53
-54
-53
-52
-57
-56
-55
-56
-54
-53
-55
-53
-54
-51
-52
-57
-57
-54
-54
-53
-52
-51
-52
-53
-56
-55
-53
-52
-53
-55
-57
-55
-50
-49
-50
-55
-58
-59
-54
-49
-49
-52
-56
-56
-55
-53
-51
-53
-55
-52
-52
-48
-47
-43
-41
-36
-30
-29
-32
-33
-31
-24
-16
-13
-14
-14
-12
-4
2
-2
-13
-26
-26
-20
-15
-15
-24
-33
-44
-54
-60
-59
-58
-59
-66
-68
-65
-58
-59
-62
-68
-71
-67
-64
-63
-64
-65
-64
-63
-67
-68
-66
-65
-59
-60
-60
-59
-63
-64
-67
-60
-50
-39
-25
0
38
79
123
166
200
224
242
256
251
230
207
184
162
142
111
77
55
36
21
5
-12
-25
-40
-54
-68
-72
-74
-76
-85
-90
-92
-92
-90
-90
-90
-92
-92
-88
-89
-91
-88
-91
-89
-87
-84
-84
-85
-87
-86
-85
-85
-87
-88
-88
-91
-88
-88
-88
-89
-93
-93
-92
-89
-88
-91
-90
-89
-86
-88
-87
-88
-89
-92
-88
-88
-89
-87
-88
-84
-77
-73
-71
-68
-69
-68
-67
-62
-58
-56
-58
-52
-46
-38
-36
-38
-45
-40
-34
-25
-22
-21
-24
-26
-27
-21
-22
-23
-25
-25
-24
-22
-24
-28
-30
-35
-41
-42
-44
-37
-39
-38
-38
-40
-44
-47
-48
-45
-41
-42
-44
-44
-46
-43
-45
-47
-44
-46
-51
-52
-48
-46
-49
-51
-57
-55
-54
-51
-50
-51
-52
-50
-50
-52
-53
-53
-52
-52
-53
-52
-47
-49
-49
-46
-47
-48
-50
-52
-52
-52
-47
-46
-45
-49
-51
-46
-45
-44
-47
-50
-49
-46
-41
-37
-37
-41
-46
-44
-41
-32
-27
-26
-29
-28
-25
-19
-14
-13
-8
-3
-1
-4
-5
-8
-9
-8
-8
-12
-16
-19
-23
-25
-32
-43
-53
-59
-60
-60
-59
-57
-59
-61
-61
-59
-55
-57
-57
-54
-56
-58
-61
-59
-55
-54
-53
-52
-48
-46
-47
-48
-55
-55
-51
-42
-23
-1
29
63
101
143
181
211
231
248
255
247
226
203
181
157
129
97
62
42
27
14
-5
-20
-33
-53
-71
-77
-77
-75
-77
-82
-91
-93
-88
-86
-85
-84
-85
-82
-82
-78
-77
-76
-77
-80
-78
-76
-74
-78
-79
-81
-81
-76
-75
-75
-76
-78
-77
-78
-83
-83
-80
-76
-76
-77
-79
-81
-82
-80
-76
-74
-76
-78
-81
-79
-75
-71
-69
-69
-69
-70
-69
-66
-64
-61
-59
-59
-54
-53
-47
-47
-41
-37
-32
-28
-26
-26
-24
-21
-16
-13
-13
-16
-19
-19
-15
-11
-12
-14
-17
-18
-17
-18
-18
-22
-25
-25
-26
-22
-24
-28
-33
-33
-33
-31
-30
-34
-37
-36
-33
-33
-34
-39
-38
-37
-36
-34
-33
-34
-37
-33
-33
-31
-32
-35
-34
-32
-31
-28
-31
-34
-35
-34
-30
-30
-31
-33
-38
-39
-38
-38
-36
-36
-33
-32
-32
-31
-34
-37
-36
-35
-30
-28
-28
-35
-40
-37
-33
-28
-30
-32
-35
-32
-31
-29
-28
-29
-32
-31
-32
-32
-29
-26
-24
-19
-12
-7
-6
-9
-13
-12
-5
-2
0
2
-4
-1
6
12
11
4
-3
-5
-1
0
-3
-7
-15
-24
-28
-35
-41
-46
-50
-49
-46
-45
-44
-42
-44
-44
-41
-42
-40
-42
-42
-40
-37
-38
-41
-46
-49
-44
-38
-33
-31
-34
-40
-44
-38
-34
-32
-17
-3
23
51
81
115
147
175
200
221
238
246
236
212
187
165
143
113
85
60
44
33
16
2
-13
-23
-33
-41
-54
-65
-76
-77
-81
-82
-82
-81
-81
-85
-82
-80
-80
-77
-78
-83
-83
-82
-78
-79
-79
-77
-78
-77
-75
-77
-78
-80
-77
-73
-72
-75
-77
-80
-79
-80
-80
-79
-82
-82
-79
-78
-79
-76
-77
-77
-79
-77
-79
-77
-78
-77
-76
-73
-69
-68
-69
-73
-69
-64
-61
-56
-55
-54
-53
-50
-51
-43
-39
-39
-33
-30
-29
-27
-28
-26
-22
-19
-18
-17
-15
-17
-15
-18
-21
-24
-25
-26
-23
-18
-18
-21
-26
-31
-33
-30
-34
-36
-39
-40
-42
-37
-38
-39
-45
-49
-49
-47
-46
-48
-49
-50
-50
-48
-48
-52
-54
-57
-56
-54
-52
-54
-55
-55
-56
-54
-55
-56
-54
-58
-57
-55
-56
-57
-60
-63
-62
-56
-53
-53
-56
-59
-57
-57
-59
-61
-63
-63
-63
-61
-57
-57
-59
-60
-59
-60
-61
-59
-58
-58
-62
-62
-60
-58
-61
-59
-62
-59
-58
-57
-57
-56
-50
-45
-41
-37
-38
-44
-47
-46
-40
-34
-30
-30
-28
-26
-23
-22
-23
-25
-25
-25
-24
-27
-31
-35
-35
-40
-43
-51
-60
-66
-70
-69
-68
-68
-70
-74
-72
-70
-67
-68
-68
-69
-67
-64
-63
-69
-70
-72
-70
-67
-64
-65
-62
-62
-62
-65
-66
-66
-60
-52
-37
-13
10
36
65
95
132
164
190
210
217
210
197
178
162
137
107
76
55
40
25
7
-11
-29
-38
-46
-57
-70
-85
-92
-96
-96
-99
-101
-107
-108
-109
-109
-107
-107
-107
-107
-107
-105
-102
-103
-102
-103
-102
-99
-97
-99
-101
-106
-104
-103
-101
-101
-101
-102
-101
-100
-98
-97
-102
-103
-105
-104
-100
-99
-101
-103
-99
-98
-97
-97
-99
-99
-95
-94
-90
-88
-87
-89
-85
-82
-78
-76
-73
-73
-69
-64
-61
-61
-56
-53
-50
-47
-43
-45
-38
-37
-35
-31
-29
-27
-26
-24
-24
-26
-25
-29
-31
-32
-35
-38
-38
-39
-37
-36
-40
-40
-41
-44
-44
-44
-45
-46
-46
-47
-46
-45
-44
-40
-41
-42
-46
-47
-48
-49
-46
-44
-44
-45
-43
-43
-41
-44
-49
-54
-54
-52
-52
-49
-46
-48
-50
-52
-49
-48
-48
-48
-48
-45
-45
-41
-45
-47
-47
-47
-44
-45
-46
-47
-48
-42
-43
-42
-45
-46
-47
-45
-43
-39
-40
-44
-47
-44
-44
-44
-45
-46
-44
-41
-38
-34
-30
-29
-23
-20
-19
-23
-26
-24
-18
-13
-6
-3
-8
-10
-13
-7
-2
-4
-7
-8
-10
-13
-15
-26
-32
-41
-49
-50
-51
-55
-60
-65
-64
-59
-55
-55
-56
-58
-57
-55
-56
-55
-55
-58
-55
-54
-52
-54
-58
-56
-54
-51
-48
-51
-54
-54
-55
-48
-46
-39
-27
-11
15
50
87
122
153
178
198
220
233
227
211
192
171
152
136
111
87
65
50
45
33
14
-4
-21
-35
-42
-54
-66
-75
-81
-84
-81
-85
-90
-91
-94
-92
-89
-87
-87
-89
-89
-86
-86
-83
-85
-88
-92
-90
-86
-84
-84
-86
-86
-86
-86
-84
-83
-87
-88
-87
-83
-81
-81
-82
-86
-89
-88
-91
-90
-88
-88
-90
-89
-86
-84
-89
-91
-90
-85
-84
-82
-90
-88
-86
-82
-79
-80
-81
-78
-78
-75
-72
-70
-65
-62
-58
-53
-52
-48
-49
-50
-50
-43
-35
-31
-33
-32
-37
-36
-32
-30
-30
-31
-33
-35
-37
-37
-38
-40
-42
-43
-45
-45
-45
-47
-47
-47
-45
-49
-53
-55
-56
-55
-52
-53
-55
-56
-58
-58
-57
-59
-61
-64
-67
-67
-66
-64
-65
-65
-64
-62
-62
-64
-69
-71
-71
-66
-64
-66
-66
-67
-64
-61
-58
-58
-59
-64
-65
-62
-61
-60
-63
-63
-61
-62
-60
-58
-59
-61
-59
-60
-55
-57
-59
-61
-59
-57
-56
-57
-58
-62
-59
-57
-54
-57
-60
-62
-59
-57
-55
-54
-54
-51
-47
-41
-36
-39
-42
-44
-40
-35
-30
-30
-29
-27
-26
-26
-22
-22
-24
-25
-26
-25
-22
-26
-32
-37
-45
-52
-59
-67
-69
-72
-75
-73
-68
-72
-70
-71
-67
-66
-63
-66
-74
-76
-74
-70
-65
-63
-66
-66
-62
-61
-59
-60
-63
-64
-65
-65
-58
-50
-40
-26
-9
17
48
80
115
146
174
194
211
212
199
181
163
142
122
93
66
48
35
23
7
-7
-23
-36
-49
-59
-65
-77
-87
-94
-97
-99
-99
-99
-99
-101
-102
-101
-99
-100
-102
-102
-104
-98
-97
-98
-99
-99
-100
-98
-96
-99
-97
-100
-102
-98
-97
-98
-99
-98
-101
-98
-98
-100
-101
-102
-102
-102
-100
-100
-100
-100
-99
-97
-96
-97
-98
-96
-95
-92
-90
-92
-91
-91
-91
-88
-80
-80
-82
-84
-80
-75
-69
-66
-68
-67
-63
-58
-56
-55
-56
-55
-54
-50
-43
-40
-39
-37
-35
-38
-40
-38
-41
-37
-35
-34
-32
-34
-38
-42
-43
-40
-39
-40
-41
-48
-51
-52
-50
-49
-50
-55
-57
-57
-56
-60
-58
-59
-57
-60
-60
-62
-62
-61
-59
-59
-58
-64
-66
-64
-64
-60
-57
-57
-61
-63
-64
-60
-57
-60
-61
-63
-62
-58
-61
-62
-64
-64
-64
-62
-59
-61
-64
-61
-60
-54
-54
-57
-62
-63
-64
-62
-56
-56
