-56.84,-57.28,-56.96,-56.88,-56.36,-56.72,-57.28,-57.68,-58.48,-54.4,-55.08,-49.24,-44.8,-41.48,-35.88,-33.32,-30.12,-26.48,-22.68,-19.04,-17.68,-15.56,-19.68,-18.12,-16.28,-14.56,-14,-16.28,-15.16,-15.76,-13.84,-14.16,-14.28,-15.72,-20.28,-20.84,-17.72,-21.28,-23.04,-26.6,-31.16,-30.72,-25.2,-26.48,-25.24,-27.16,-29.84,-29.96,-28.32,-27.8,-29.56,-30.88,-33.56,-33.2,-33.84,-30.56,-27.88,-30.16,-29.84,-28.8,-28.6,-27.84,-26.08,-27.56,-31.28,-30.52,-32.36,-31.08,-30.76,-29.36,-28.6,-30,-28.76,-26.76,-25.52,-27.64,-27.8,-27.28,-25.16,-25.44,-29.24,-29.92,-31.52,-31,-24.32,-23.8,-23.64,-27.52,-28.24,-26.4,-21.68,-19.12,-21.92,-24.24,-26.12,-26.76,-24.56,-24.16,-22.4,-23.92,-23.68,-19.76,-19.48,-17.8,-18.12,-20.68,-21.44,-18.88,-19.92,-19.76,-20.6,-22.28,-21.6,-18.28,-17.28,-16.68,-14.48,-15.88,-17.24,-18.84,-12.76,-14.24,-12.48,-11.36,-12.12,-3.92,2.72,6,2.96,0.68,1.88,5.52,12.16,18.64,20.72,19.32,17.12,17.36,19.64,20.8,26.56,25.12,23.2,22.8,22.96,21.64,22.2,16.88,12.2,3.76,-5.56,-15.36,-21.96,-26.92,-25.12,-23.56,-22.48,-19.84,-20.68,-23.88,-28.32,-24.64,-24.28,-21.72,-21.04,-22.76,-25.32,-25.32,-20.64,-18.04,-18.92,-17.24,-21.8,-19.2,-16.76,-18.16,-16.72,-17.16,-16.4,-16.12,-15.84,-19,-19.8,-20,-15.84,-4.04,15.24,39.8,66.24,102.76,136.2,173.96,209.68,237.16,259.56,273.72,286.08,289.96,273.16,248.08,222.52,199.32,172.04,138.64,107.84,85.72,74.56,56.24,34.92,15.92,6,-2.12,-8.8,-17.84,-27.32,-35.64,-41.2,-43.8,-46.52,-52.8,-55.92,-54.52,-52.36,-49.48,-53.32,-53.32,-53.88,-52.12,-48,-45.44,-49.16,-49.68,-50.52,-52.88,-50.28,-49.04,-47.72,-51.64,-53.4,-50.44,-47.08,-45.28,-45.08,-48.32,-50.68,-51,-46.56,-45.6,-47.8,-49.44,-51.04,-54.88,-52.68,-50.8,-47.52,-49.6,-49.32,-48.64,-46.16,-47.48,-48.96,-47.96,-47.36,-49,-43.72,-41.56,-43.16,-42.16,-42.96,-37.32,-36.2,-32.48,-31.84,-28.88,-29.44,-26.56,-23.96,-19.6,-18.28,-17.2,-15.2,-12.08,-6,1.32,2.96,3.24,2.44,1.8,5,5.16,8.04,8.44,7.6,10.88,12.8,14.04,16.16,13.64,14.44,12.24,10.56,7.36,7.56,5.6,3.2,0.16,0.64,2.72,1.28,-5,-6.76,-3.36,-1.56,-3.48,-2.8,-8.56,-14.12,-13.2,-11.72,-10.88,-12.36,-8.16,-7.44,-6.8,-5.92,-6.72,-5.88,-9.76,-10.92,-11.84,-12.68,-13.16,-14.96,-17.56,-17.28,-15.28,-10.64,-10.96,-10.96,-11.64,-17.8,-13.8,-12.16,-10.96,-12.8,-13.2,-16.88,-17.48,-12.4,-7.36,-7.68,-11.84,-11.76,-14.48,-9.88,-9.76,-11.16,-9.96,-10.68,-12.2,-13.84,-13.56,-11.44,-14.44,-14.84,-13.2,-10.08,-8.56,-7.28,-8.08,-12.56,-10,-5.72,-4.88,-5.08,-6.56,-10.64,-6.2,0.72,1.28,-0.44,-3,-5.8,-4.56,-3.32,0.8,1.92,2.88,0.44,4.12,13.28,17.88,19.48,15.96,13.04,14,19.8,21.68,25.84,24,25.16,25.84,30.36,35.12,31.4,31.2,29.8,29.28,30.2,28.16,25.12,20.2,11.36,4.52,-6.4,-13.84,-20.16,-21.28,-21.84,-21.28,-21.72,-20.16,-18.08,-21.08,-23.04,-24.08,-22.12,-22.08,-21.84,-23.12,-21.4,-21.48,-19.2,-17.88,-18.2,-19.44,-18.28,-17.36,-15.48,-15.48,-16.36,-21.32,-22.16,-21.48,-22.84,-22.92,-20.32,-16.72,-7.04,14.68,41.64,76.68,112.6,149.84,184.08,221.2,251.24,272,289.8,290,269.64,239.24,214.84,191.64,165.92,136.48,108.6,93.76,87.88,74.92,56.12,32.68,17.76,5.8,-1.84,-12.36,-23.56,-30.6,-37.36,-39.16,-39.32,-43.28,-47.2,-52.4,-56.28,-54.88,-52.92,-49.08,-46.68,-47.04,-47.04,-45.36,-39.16,-35.84,-37.72,-40.36,-44.72,-46.84,-44.8,-43.32,-44.28,-42.24,-41.84,-40.12,-38.24,-36.68,-39.44,-41.12,-42.84,-43.76,-44.2,-44.32,-44.28,-43.84,-44.76,-45.88,-42.64,-41.92,-39.88,-40.28,-44,-42.84,-42.92,-43.72,-41.04,-42.96,-44.8,-42.36,-41.52,-37.96,-38.28,-39.44,-37.72,-33.8,-32.96,-30.48,-30.72,-34.68,-32.84,-31.28,-23.56,-20.04,-18.36,-20.56,-16.8,-12.28,-6.76,-0.44,2.92,2.32,1.84,1.36,4.8,7,5.32,5.32,2.36,6.4,5.08,8.88,8.64,3.28,0.76,1.16,-0.48,-0.96,-5.36,-8.92,-12.4,-11.48,-11.64,-10.48,-9.52,-9.48,-11.6,-11.2,-8.92,-9.48,-11.04,-14.36,-18.4,-19.08,-17.56,-16.6,-15.64,-15.24,-16.4,-12.4,-11.72,-10.28,-12.04,-13.6,-17.12,-18.72,-17.08,-15.08,-14.88,-18.12,-19.36,-20.08,-16.44,-12.44,-11.76,-14.24,-14,-16.72,-14.4,-16.08,-18.24,-20.12,-19.88,-18.24,-13.44,-13.24,-14.68,-17.68,-18.08,-15.8,-12.76,-12.6,-14.12,-17.8,-20.96,-21.12,-19.04,-18.56,-18.04,-18.88,-17.24,-14.32,-8.64,-5.6,-6.6,-12.04,-14.04,-10.32,-6.08,-2.84,-1.6,4.56,3.84,9.96,15.76,21.32,18.12,15.36,17.44,21.88,28.64,29.8,31,34.92,37.48,38.8,41.36,44,42.52,38.72,31,30.96,28.8,27.08,20.84,11.08,-0.76,-7.92,-11.52,-13.24,-11.6,-14.8,-17.08,-16.92,-14.64,-11.72,-12.64,-15.2,-19.44,-16.2,-14.2,-14.4,-15,-14.64,-15,-12.12,-8.56,-8.36,-9.04,-11.16,-13.16,-11.68,-10,-8.76,-8.72,-11.88,-16.4,-17.08,-12.52,-3.76,14.96,40.16,71.68,108.48,143.24,180.72,213.36,242.76,264.04,278.68,288.96,285.32,264.96,236,210.8,188.96,167.36,133.24,97.12,73.96,54.72,41,22.32,7.96,-3.32,-15.72,-24.08,-31.32,-34.56,-39.36,-39.96,-47.84,-52.84,-56,-55.4,-54.12,-54.48,-55.88,-59.36,-56.88,-53.56,-51.88,-50.32,-52.96,-55.64,-53.84,-52.16,-52.16,-48.6,-50.08,-52.4,-51,-49.6,-49.88,-47.12,-47.04,-48.16,-48.72,-46.56,-48.8,-46.84,-48.76,-53.16,-50.76,-49.32,-48.04,-50.56,-52.76,-53.04,-49.96,-46.2,-46.8,-48.8,-49.92,-47.92,-46.92,-45.4,-44.16,-44.64,-47.24,-47.68,-46.04,-44.48,-41.48,-37.56,-36.96,-36.92,-33.2,-27.64,-24.56,-28.16,-29.48,-29.36,-28.64,-26.76,-23.44,-17.56,-16.32,-16.84,-12.08,-5.28,-2.36,1.32,1.24,-1.56,-0.08,1.16,3.04,3.84,6.96,6.48,8.32,8.4,11.72,8.96,6.4,4.52,2.36,4.52,3.08,0.52,-4.4,-6.44,-9,-5.6,-4.56,-5.28,-6.76,-5.8,-5.52,-5.32,-3.28,-3.84,-10.24,-10.8,-13.6,-13.6,-11.08,-10.56,-9.44,-12.32,-12.08,-13.4,-10.12,-8.96,-9.76,-12.6,-16.52,-15.56,-16.52,-14.72,-15.08,-15.64,-14.76,-10.68,-10.44,-10.6,-7.16,-6.96,-9.76,-11.04,-12.76,-12.68,-13.52,-15.8,-14.2,-12.88,-10,-10.76,-10.36,-14.72,-12.48,-9.56,-8.28,-8.64,-14.16,-16.24,-13.28,-10.8,-9.24,-9.8,-11.6,-12.84,-11.64,-6,-0.32,0.8,-2.32,-4.56,-4.04,-0.44,2.08,-1.12,-3.72,-3.2,0.72,4.32,7.72,12.52,13.88,14.72,15.72,18.6,18.72,15.76,18.84,21.2,23.08,26.32,30.96,33.4,32.72,33.44,36.52,42.2,40.2,39.04,33.24,29.32,30.28,28.44,22.56,10,-0.2,-8.76,-11.56,-11.04,-8.88,-13.04,-13.92,-16.88,-16.76,-13.88,-11.84,-13.6,-15.52,-15,-16.24,-15.92,-11.8,-8.04,-8.84,-11,-9,-11.04,-7.76,-6.88,-7.76,-10.68,-10.68,-9.32,-9.44,-10.88,-12.72,-14.08,-12,-0.24,22,52.2,90.48,124.4,164.24,205.24,239.28,259.8,277.88,286.56,278.68,258.2,231.52,207.48,189.04,167.16,144.32,114.32,85.36,63.52,43.88,27.48,10.4,-4,-15.6,-21.72,-31.2,-43.12,-45.68,-48.84,-47.6,-48.64,-51.64,-56.72,-59.4,-58.8,-58.6,-58.08,-56.6,-53.2,-51.08,-50.24,-48.8,-49.96,-49.64,-48.76,-49.04,-49.36,-50.04,-51.24,-50.92,-48.32,-43.92,-44.44,-43.28,-43,-45.88,-45.72,-42.4,-42.52,-46.84,-47.12,-51.72,-48.96,-46.56,-48.12,-46.76,-48.36,-48.08,-48.92,-48.72,-42.72,-44.52,-45.56,-49.88,-50.08,-48.8,-47.2,-44.72,-45.16,-47.8,-43.64,-39.36,-33.2,-30.96,-27.76,-31.6,-27.8,-27.48,-28.44,-29,-29.64,-30.56,-26.8,-22.24,-17.84,-16.64,-11.36,-11.36,-6.8,-2.88,1.8,2.28,3.2,3.64,5.24,7.44,9.84,8,6.48,6.64,3.52,4.92,7.72,5.12,1.4,-1.52,-3.6,-3.24,-5.4,-6.04,-6.44,-9.12,-8.52,-8.24,-8.32,-8.96,-7.08,-6.64,-7.48,-5.4,-5.36,-8.84,-10.8,-13.2,-12.44,-12.28,-10.8,-9.44,-10.36,-11.04,-12.2,-10.96,-7.84,-7.72,-9.68,-9.36,-9.8,-9.72,-9.28,-8.24,-12.72,-14.24,-11.52,-8.28,-10.56,-11.32,-9,-8.6,-8.76,-9.56,-7.04,-7.96,-11.48,-13.16,-12.52,-9.12,-4.6,-7.4,-11.8,-9.36,-10.12,-4.8,-5.2,-5.12,-8.56,-11.52,-12.36,-11.24,-8.84,-9.56,-7.56,-8.56,-7.96,-2.12,-0.68,-0.84,-1.6,-4.16,0.12,5.68,6,2.88,-1.52,-4.16,-4.2,0.96,5.68,7.68,11.08,15.92,22.32,27.04,25.6,19.6,19.44,18.96,25.32,31.28,33.8,33.84,36.52,35.68,36.04,39.72,42.92,40.68,38.28,35.52,30.28,28.84,25.24,23.36,10.88,-1.84,-10.28,-14.16,-13.84,-14.08,-15.76,-14.88,-14.36,-16.16,-17.48,-17.6,-19.16,-20.04,-17.44,-18.48,-16.96,-14.64,-14.28,-13.64,-14.24,-11.56,-8.96,-10.64,-12.08,-12.96,-9.68,-7.56,-9.12,-11.24,-16.44,-14.16,-8.8,0.76,17.04,39.8,71.52,109.04,150.48,194.44,231.8,260,283.68,292.8,284.68,262.72,240.24,215.84,196.28,173.16,140.84,110.32,89.84,74.08,49.68,28.92,12.84,-0.24,-8.16,-17.96,-28.2,-39.52,-43.36,-43.6,-48.92,-48.44,-51.72,-53.48,-53.96,-56.92,-58.4,-55.6,-53.4,-52.36,-50.92,-46.48,-47.64,-48.76,-50.12,-50.44,-53.76,-51.72,-50.16,-50.12,-49.44,-49.6,-48.12,-46.88,-48.2,-46.24,-48.12,-47.96,-48.44,-45,-47.32,-48.16,-50.44,-52.24,-48.84,-47.12,-45.76,-43.48,-43.64,-46.68,-43.68,-41.52,-40.04,-40.6,-42.8,-46.48,-48.08,-48.12,-46.72,-42.96,-40.6,-40.2,-35.48,-32.44,-29.4,-25.2,-24.64,-23.32,-19.16,-17.64,-16.32,-13.72,-16.64,-15.56,-10.96,-6.96,-2.4,1.16,0.84,2.44,5.68,11.88,14.88,12.12,9.36,3.92,4.36,6.44,6.72,6.4,3.64,2,1.32,1.28,4,2.76,-0.8,-4.36,-7.16,-8.64,-11.2,-10.92,-12.32,-13.52,-12.12,-8.64,-8.08,-9.88,-9.24,-13.68,-12.24,-12.88,-12.44,-15.64,-16.12,-20.76,-18.12,-15.48,-12.12,-11.48,-13.56,-15.44,-13.96,-11.6,-8.36,-12.92,-16.52,-16.64,-20.68,-17.04,-15.84,-16.36,-15.92,-14.28,-15.32,-13.32,-11.72,-11.44,-11.28,-16.64,-16.16,-17.44,-16.4,-15.96,-16.68,-16.16,-15.64,-15.16,-11.2,-10.08,-10.4,-12.28,-11.08,-10.64,-10.12,-9.32,-11.32,-17.04,-16.16,-12.84,-11.24,-8.48,-10.88,-11.04,-7.32,-3.92,-0.04,0.08,0.2,1.12,-0.08,3.4,1.8,1.2,-0.16,-0.4,8.4,13.2,15.52,18.8,17.08,16.72,16.84,21.04,26.28,28.16,26.28,26.44,29.6,32.84,39.4,38.32,37.56,32.88,34.12,37.68,36.84,35.92,30.24,26.36,19.64,13.72,5.72,-4.88,-11.12,-20.16,-19.04,-14.8,-13.76,-15.04,-17.72,-21.4,-17.08,-17.04,-16.88,-17.76,-19.76,-19.28,-17.6,-15.68,-14.6,-13.2,-15.12,-16.4,-13.2,-10,-8.44,-8.48,-12.24,-17,-13.16,-14.8,-15.08,-15,-13.68,-10.32,2.72,22.16,49.36,85.6,122.28,159.44,197.76,233.88,260.76,278.16,288.04,280.4,260.72,237.08,216.28,200.92,180.24,154.76,121.36,92.6,74.12,60.36,42.48,21.08,3.8,-6.8,-14.36,-21.8,-31.32,-37.8,-40.64,-42.36,-42.88,-44.68,-49.2,-52,-54.12,-52.88,-52.16,-51.72,-50.2,-49.76,-48.72,-45.52,-44.56,-45.4,-45.04,-48.84,-48.52,-47.52,-47.6,-48.16,-53.28,-51.84,-49.36,-46.2,-45.08,-46.68,-48.28,-51.8,-50.08,-46.88,-45.36,-47.12,-49.96,-50.6,-52.84,-47.6,-49.12,-47.84,-45.48,-49.16,-51.92,-48.6,-48,-45.64,-47.04,-47.8,-50.68,-46.36,-46.8,-45.56,-43.96,-40.68,-41.28,-36.2,-33,-32.8,-32.92,-32.48,-28.84,-23.52,-21.56,-19.36,-19,-13.36,-7.88,-3.16,-3.16,-1.44,-4.6,-5.8,-3.24,-1.96,0.24,-0.36,0.44,1.88,3.16,7.32,10.56,8.44,4.88,1.48,2,-2.08,-5.08,-4.84,-6.8,-11.64,-10.36,-7.68,-3.8,-5.16,-7.52,-7.4,-8,-7.32,-8.72,-9.52,-13.24,-17.8,-20.84,-18.76,-13.44,-11.6,-15.32,-15.8,-13.24,-11.44,-8.24,-9.32,-11.52,-18.28,-18.24,-18,-15.36,-16.48,-18.44,-17.96,-15.96,-13.96,-12.28,-12.44,-14.12,-14.28,-13.48,-13.36,-16.2,-13.92,-16.08,-18.04,-15.08,-14.6,-10.64,-11.56,-14.76,-13.96,-13.8,-9.96,-11.12,-12.88,-14.6,-17.28,-18.6,-16.84,-13.76,-11.2,-10.28,-12.2,-10.48,-8.84,-6.24,-7.56,-6.64,-9.04,-7.44,-6.64,-5.48,-3.4,-3.32,-3.12,3.04,3.64,3.36,2.88,-0.4,0.6,2.6,3.12,6.16,8.72,10.12,10.72,13.92,21.12,21.56,19.64,19.12,18.32,25.6,30.28,33.2,34.76,34.92,34.56,36.92,40.32,40.48,38.8,36.48,33.56,34.12,34.2,33.4,28.28,18.48,7.12,-2.64,-8.2,-10.8,-14.28,-17.12,-14.76,-13.2,-11.2,-10.64,-13.52,-16.16,-18.24,-17.16,-13.56,-14.36,-14.72,-15.16,-15.52,-14.6,-12.36,-7.88,-6.64,-9.04,-10.8,-11.48,-10.84,-8.92,-7.12,-12.8,-14.04,-15.44,-16.92,-13.16,-9.76,-0.2,15.08,41.64,77,113.28,148.08,183.08,218.96,250.24,273.96,286.72,288.6,268.56,240.04,214.56,199.96,182.68,154.36,120.72,97.76,79.64,76.48,63.76,43.6,22.64,4.6,-8.4,-14.04,-19.48,-27,-35.2,-39.6,-41.36,-44.48,-46.56,-49.8,-51.68,-53.72,-51.8,-48.12,-45.12,-44.72,-47.04,-45.76,-45.36,-44.08,-38.96,-42,-47.92,-50.04,-50.24,-48.68,-46.12,-45.44,-45.32,-45.88,-44.4,-41.32,-44.04,-42.72,-45.4,-45.36,-48.36,-49.8,-48.84,-49.08,-52.32,-55.52,-54.36,-52.72,-48.8,-49.24,-51.72,-51.24,-50,-52.04,-49.96,-50.28,-52.32,-52.36,-50.76,-47.16,-44.96,-47.28,-45.32,-45.72,-43.36,-37.96,-36.72,-38.64,-38.56,-36.8,-33.96,-33.2,-30.72,-26.16,-22.64,-19.92,-15.08,-11.52,-7.16,-4.72,-4.28,-3.24,-1.24,-0.96,3.44,5.28,5.92,4.28,8.32,11.48,12.08,12.4,8.8,6.44,5.96,6.84,6.36,3.72,0.44,-2.72,-5.32,-2.24,-2.2,-2.6,-7.12,-8.44,-10.44,-9.2,-6.6,-7.76,-12.48,-14.56,-15.4,-13.12,-12.2,-12.8,-11.68,-12.08,-13.68,-12.04,-11.04,-10.76,-14.2,-16.36,-14.44,-16.92,-14.32,-15.28,-16.4,-20.16,-16.24,-12.6,-12.2,-14.44,-18.36,-22.24,-19.88,-16.08,-14.12,-15.44,-17.72,-17.64,-18.8,-15.72,-13.8,-12.12,-13.44,-14.6,-13.52,-15.48,-16.16,-14.32,-12.24,-13.44,-12.96,-10.92,-10.16,-13.12,-15,-13.28,-10.24,-7.88,-5.76,-8.16,-8.4,-9.12,-5.6,-2.52,2.12,3.12,0.4,-1.44,-2.28,1.04,0.84,1.56,2,0.56,-1.12,1.04,2.64,3.52,5.52,3.64,5.08,6.32,5.72,5.84,5.2,6.6,12.52,18.76,19.96,20,16.48,15.28,20.04,26,32.4,33.8,34.4,33.64,32.8,35.2,39.12,38.44,36,34,35.4,39.08,35.88,32.04,30.6,26.16,21.8,16,5.16,-6.28,-12.4,-17.92,-18.48,-15.56,-15.24,-15.48,-17.56,-19.28,-16.84,-14.56,-14.08,-15.72,-14.4,-17.76,-18.92,-17.48,-18.08,-16.2,-15.64,-16.72,-14.96,-11.72,-9.28,-6.8,-13.24,-13,-10.68,-13.12,-13.16,-13.52,-16.88,-17.04,-13.6,-2.56,9.28,32.56,54.24,84.96,119.52,156.68,192.12,222.76,246.04,265.84,285.44,291.28,281.72,257.88,229.08,207.44,190.24,171.84,148.56,118.88,96.4,85.08,69.24,53.92,34.48,16.52,2,-7.84,-17.88,-28.8,-39.08,-44.32,-47.64,-50.28,-52.08,-54.52,-54.44,-54.68,-53.92,-57.88,-57.56,-56.64,-51.84,-50.76,-52.12,-52.44,-52,-51.84,-51.84,-53.16,-54.88,-53,-50.56,-50.8,-49.52,-47.76,-50.88,-51.88,-51.4,-49.04,-49.6,-49.24,-53.28,-54.52,-57.28,-56.56,-56.04,-55.04,-54.56,-53.52,-52.4,-52.12,-51.48,-52.84,-55.16,-53.52,-54.6,-53,-52.8,-56.04,-55.44,-55.36,-54.92,-49.04,-45.88,-45.48,-45.8,-48.2,-45.76,-40.2,-36.2,-35.6,-36.28,-38.64,-36.08,-30.24,-23.8,-19.84,-15.4,-12.92,-13.52,-9.84,-5.6,-7,-3.24,-4.4,-1.32,0.76,0.6,-0.28,0.88,0.32,4.68,6.2,8.04,7,4.12,1.92,3.84,4.72,4.92,4.52,0.76,-1.12,-4.52,-2.68,-2.36,-4.92,-6.08,-9.6,-11.08,-9.92,-8.6,-9.4,-10.76,-13.12,-12.84,-10.72,-11,-13.04,-13.88,-16.44,-16.6,-13.52,-9.24,-11.32,-12.36,-15.48,-17.12,-15.72,-13.48,-14.28,-17.6,-20.64,-17.64,-16.4,-14.44,-16.2,-16.84,-15.84,-14.8,-14.2,-14.84,-14.4,-19.16,-19.88,-16.04,-16.36,-14.36,-13.96,-16.8,-18.36,-16.28,-11.44,-10.32,-9.8,-13.24,-14.76,-13.6,-12.48,-9.52,-10.48,-13.08,-10.76,-10.8,-7.2,-5.68,-3.48,-3,-2.2,-0.8,1.36,3.2,-0.52,-2,-5,-2.84,1.28,1.4,1.2,1.64,0.64,4.16,6.32,6.96,6.36,3.4,0.96,-1.32,1.04,2.68,4.24,6.96,8.56,14.92,19.84,23.4,22.44,19.2,16.76,20.84,24.16,25.96,26.36,26.24,27.04,29.72,34.32,37.8,36.72,38.4,34.6,32.24,32.68,32.88,29.24,25.12,15.76,6.48,-0.8,-6.08,-9.4,-13.96,-18.92,-19.32,-16.2,-13.68,-16.16,-18.84,-20.44,-18.56,-17.04,-18.32,-19.56,-19.84,-21.04,-17.68,-13.64,-13,-10.76,-12.24,-12.76,-13.4,-11.12,-10.36,-11.64,-15.76,-17.96,-14.28,-17.64,-13.2,-8.92,-2.08,18.4,49.84,87.12,128.56,172.08,204,240.84,269.08,290.8,306.36,302.2,280.88,253.2,225.28,201.68,180.28,148.68,115.28,88.88,72.8,59.56,39.92,22.72,4.52,-5.64,-14.04,-21.96,-30.8,-35.4,-41.72,-43.36,-46.88,-50.48,-53.92,-55.2,-54.92,-59.16,-60.52,-53.96,-51.52,-49.36,-49.2,-51.8,-50.52,-50.4,-50,-50.68,-51.04,-53.52,-52.4,-49.8,-50.12,-50.4,-50.64,-52.48,-51.36,-46.96,-47.68,-47.32,-47.48,-48.84,-53.96,-50.56,-49.2,-50.44,-52.56,-53.88,-52.2,-46.04,-43.88,-43.44,-48.08,-49.8,-51.28,-48.68,-49.68,-50.36,-48.92,-49.12,-47.4,-44.84,-45.16,-39.92,-36.64,-37.12,-34.88,-32.8,-30.28,-29.52,-29.44,-30.08,-28.72,-21.04,-17.4,-15.08,-11.04,-10,-8.08,-4.16,-2.2,-0.56,-1.24,-3.64,-0.6,1.96,4,7,7.52,9.08,9.08,9.72,8.6,10,7.44,2.16,1.12,1.16,-2.32,-4.84,-6,-10.52,-9.6,-7.84,-8.32,-6.2,-6.96,-11.44,-10.04,-6.36,-7.24,-10,-12.4,-18.76,-17.92,-16.48,-15.48,-12.56,-9.8,-10.96,-10.68,-9.44,-8.96,-11.24,-14.16,-15.92,-17.48,-16.4,-15.92,-16.52,-14.8,-17,-15.48,-12.96,-12.72,-13.32,-12.8,-16.04,-17,-15.84,-14.28,-16.04,-17.68,-18.24,-16.64,-12.96,-10.32,-9.64,-8.4,-12.92,-11.44,-9.76,-9.72,-11.44,-10.8,-12.64,-18.48,-14.36,-10.56,-10.2,-9.24,-10.52,-10.2,-7.16,-5.44,-4.28,-5.52,-6.48,-4.76,-3.32,-1.16,-0.24,-1.88,-1.84,-1.92,0.4,0.4,1.48,0.2,0.24,-0.52,2.4,7.44,9.4,10.88,9.16,12.72,16.36,19,15.88,16.68,15.72,24.2,27.2,29.24,33.08,30.08,32.2,34.72,35.76,35.28,35.2,31.96,27.88,27.72,24.52,22.96,18.16,9.32,0.24,-9.8,-10.8,-14.16,-17.04,-19.48,-19.52,-17.76,-19.04,-19.12,-19.32,-21.72,-19.52,-16.36,-16.6,-16.8,-15.64,-15.84,-16.68,-15.4,-13.56,-10.72,-9.76,-11.8,-12.96,-13.64,-10.44,-9.44,-12.52,-12.56,-15.32,-16.64,-12.4,-11.16,-2.2,14.64,43.76,76.76,116.44,148.92,186.16,217.4,242.4,266.36,283.44,294.12,290.68,269.24,238.44,215.36,197.48,176.4,141.28,104.92,77.44,58.68,45.56,31.56,11.76,-5.4,-14.6,-21.16,-24.2,-30.56,-39.64,-45.76,-49.84,-52.28,-53.96,-53.76,-54.92,-55.2,-58.16,-57.56,-55.04,-53.72,-52.84,-55.28,-51.28,-51.52,-48.68,-53,-53.48,-52.2,-55.28,-55.44,-50.32,-49.4,-54.4,-51.76,-51.64,-50.04,-49.12,-49.6,-50.6,-48.8,-52.36,-54.16,-53.44,-54.76,-56.52,-53.48,-54.32,-50.8,-48.88,-48.28,-50.44,-50.84,-50.8,-51.04,-49.8,-50.68,-50.96,-52.08,-50.68,-48.64,-41.6,-42.28,-37.56,-41.44,-41.28,-38.76,-34.12,-34.64,-35.68,-39.04,-40.72,-36.96,-32.4,-29.24,-25.8,-22.36,-17.36,-12.2,-7.24,-3.88,-3.88,-0.28,-4.64,-1.56,-0.56,0,-0.8,-3.04,-2.12,1.64,2.88,2.2,3.52,-1.96,-5.8,-6.16,-7.48,-7.4,-9.16,-11.4,-15.96,-16.28,-12.56,-10.8,-9.4,-8.88,-9.56,-12.04,-9,-6.04,-11.32,-15.04,-17.64,-16.84,-15.52,-16.64,-13.92,-13.2,-12.76,-12.4,-11.32,-13.8,-9.88,-13.88,-14.36,-16.44,-14.44,-16,-15.64,-17.88,-18.32,-11.72,-8.36,-8.04,-9.92,-10.32,-11.4,-8.44,-10.88,-10,-11.96,-17.48,-18.96,-14.32,-14.88,-10.36,-9.04,-8.6,-9.36,-8.92,-6.24,-7.52,-6.88,-12,-14.08,-14.56,-10.4,-9.08,-7.64,-10.2,-11.6,-7.6,-6.44,-1.8,-0.6,0.4,-2.6,-2.48,-0.68,2.84,4.76,3.56,1.88,5.36,12.72,19.76,24.32,23.24,23.12,22.72,22.6,22.04,23.44,27.48,29.72,33.76,36.6,39.84,43.04,43.92,42.28,42.88,39.6,38.08,36.96,33.56,28.96,24.08,16.12,8.04,-1.84,-9.68,-13.28,-12.52,-13.08,-8.52,-11.68,-14.24,-14.2,-15.6,-12.4,-9.32,-10.12,-13.04,-17.16,-13,-10.6,-9.76,-6.28,-9.8,-11.92,-10.4,-8.52,-8.04,-6.76,-9.68,-14.52,-16.32,-13.64,-7.32,1.08,14.96,31.36,57.84,87.68,121.12,155.2,191.76,225.08,254.04,274.12,290.44,285.36,260.6,229.28,202.84,180.24,157.76,125.96,98.6,81.8,67.28,47.44,28.6,13.84,0.24,-10.96,-21.92,-27.28,-31.6,-37.84,-42.08,-44.8,-47.16,-48.4,-49.88,-53.72,-53.52,-57.2,-53.96,-50.48,-47.48,-46.8,-49.04,-51.04,-50.48,-48.4,-47.64,-45.6,-48.44,-48.84,-52.28,-47.24,-49.96,-48.4,-48.32,-48.56,-47.92,-44.92,-45.56,-45.48,-47.52,-47.64,-47.6,-47.08,-47.44,-49.36,-50.08,-48.48,-48.6,-46,-43.44,-44.48,-47.16,-46.76,-48.12,-47.28,-43.32,-44.68,-44.84,-47.64,-45.6,-43.36,-40.96,-38.36,-40.24,-42.88,-43.36,-39.72,-35.36,-35.56,-35.12,-36,-36.72,-30.24,-22.96,-17.4,-13.84,-11.28,-8.88,-2.44,-1.08,0.28,0.24,3.04,3.16,5.88,5.56,4.64,4.4,5.44,8,8.4,9,6.6,2.32,-0.28,-2.36,-2.68,-4.52,-7.8,-8.84,-10.72,-8.04,-4.2,-4.72,-3,-5.16,-8.28,-7.64,-8.44,-8.6,-10.76,-14.44,-15.56,-16.44,-13.32,-8.6,-11.64,-7.84,-11,-10.2,-7.56,-7.92,-8.84,-12.96,-17.8,-16.52,-15,-13.16,-11.28,-13.88,-12.24,-9.76,-9.16,-9.48,-8.76,-7.84,-10.88,-12.08,-11.96,-10.8,-12.16,-12.08,-12.28,-12.08,-7.72,-8.2,-5.72,-6.12,-5.32,-6.64,-6.84,-6.16,-9.96,-12.76,-14.04,-11.2,-7.8,-8.8,-7.44,-5.8,-7,-2.08,0.16,2.72,-0.36,-4.32,-5.68,-3.92,1.08,2.96,5.28,7.96,14.32,20.88,25.32,26.2,22.52,19.28,16.16,19.08,26.96,31.28,33.52,34.72,32.56,34.8,42.64,44.84,43.04,38.84,33.88,32.44,32.16,28.08,20.88,7.28,-4.56,-14.32,-11.64,-12.32,-11.32,-13.88,-16.64,-14.96,-16.08,-14.44,-12.56,-15.6,-15.72,-14.52,-14.36,-14.28,-13.4,-14.12,-13,-9.68,-7.56,-6.92,-4.84,-7.12,-12.16,-9.32,-7.52,-5.44,-5.24,-10.08,-12.08,-7.84,0.24,16.48,42.68,77.52,115.56,159.08,201.08,234.92,259.84,276.08,288.2,298.36,290.12,264.48,230.68,204.08,179.44,146.2,118.16,96.76,80.92,64.04,41.12,21.32,5.32,-3.48,-13.48,-22.76,-33.48,-38.16,-38.04,-41.4,-45.2,-51.36,-53.04,-53.04,-53.04,-53.04,-51.08,-53.84,-52.92,-51.36,-48.24,-44,-45.84,-46,-48.8,-48.96,-44.84,-43.8,-46.52,-49.24,-50.92,-49.36,-46.36,-41.56,-41.32,-47,-47.84,-47.16,-43.12,-43.4,-44.32,-47.2,-54.8,-55.64,-50.4,-46.96,-47.92,-45.96,-47.8,-48.44,-47.64,-45,-47.92,-51.08,-51.88,-52.96,-50.76,-47.52,-46.24,-47.56,-45.4,-41.88,-39.28,-37.96,-35.48,-35.28,-35.76,-35.64,-36.24,-33.6,-33.28,-32.32,-31.6,-25.84,-18.64,-13.08,-9.24,-6.64,-7.88,-3.88,-0.04,2.28,2.4,1,0.04,-0.56,2.56,8.88,8.6,10.44,6.48,8.12,8.8,7.08,5.96,1.56,-6.48,-7,-4.12,-5.8,-4.48,-3.04,-3.28,-3.44,-0.32,-2.52,-3.6,-7.16,-8.4,-9.96,-11.12,-14.56,-12.28,-13.8,-13.4,-10.96,-8.4,-4.52,-3.04,-6.08,-8.2,-8.84,-9.32,-12.92,-17.16,-18.6,-17.6,-14.68,-13.76,-10.68,-7.96,-7.12,-6.72,-3.88,-3.16,-2.84,-7.32,-11.68,-15.92,-16.4,-13.48,-9.48,-8.68,-8.56,-10.8,-8.16,-3.92,-2.08,-3.4,-7.08,-9.52,-9,-12.56,-14.96,-16.08,-15.04,-13.16,-11.44,-6,-4.44,-3.08,-3.64,-4.84,-3.24,-3.28,-4.08,-3.88,-4.92,-6.04,-2.48,1.84,3,5.08,3.68,6.68,11.2,17.96,22.2,21.2,16.64,13.44,16.8,22.72,28.36,33.12,34.12,35.76,38.96,42.56,45.76,43.68,37.8,33.64,28.96,30.64,28.04,22.08,13.68,2.64,-4.56,-8,-11.72,-11.92,-15.44,-15.48,-15.44,-16.76,-13.32,-13.44,-14.96,-19.04,-19.6,-17.72,-13.96,-11.28,-10.84,-13.08,-11.76,-7.88,-7.88,-8.04,-11.48,-15.6,-14.2,-13.6,-14.24,-11.96,-14.2,-14.48,-6.16,8.36,35.68,67.68,101.88,139.72,183.12,224.92,256.2,278.92,287.4,276.84,251.48,226.16,200.64,173.24,139.8,109.08,87.2,78.04,71.6,53.4,31.04,9.8,-3.64,-13.36,-22.6,-30.68,-38.08,-42.4,-42.72,-43.64,-47.4,-48.52,-53.92,-53.96,-55.44,-53.84,-51.32,-50.76,-50.84,-49.12,-46.84,-43.64,-41.08,-43,-46.72,-48.88,-48.44,-48.96,-47.44,-49.64,-50.04,-48.32,-45.52,-41.88,-40.48,-42.08,-43.24,-43.72,-46.28,-46.24,-46.76,-45.16,-48.56,-48.6,-49.16,-47.6,-46.8,-47.16,-46.6,-44.24,-43.6,-42.28,-39.88,-41.76,-46.24,-44.6,-46.16,-44.24,-45.68,-41.2,-40.44,-39.72,-35.2,-30.96,-27.32,-23.96,-23.4,-23.32,-22.92,-20.64,-19.64,-17.4,-17.8,-19.6,-14.36,-9.2,-4,-0.72,0,-2.48,-0.72,0.88,2.76,1.08,2.32,2.68,5.12,7.4,7.88,9.28,7.28,6,2.28,3.4,3.76,-1.12,-2.92,-8.24,-8.8,-7.32,-4.48,-4.92,-8.2,-6.76,-6.84,-9.08,-5.48,-9.12,-9.48,-10.32,-13.44,-11.92,-11.32,-13.64,-12.44,-13.8,-10.12,-6.84,-7.92,-11,-13.12,-15.72,-14.36,-14.36,-17.52,-17.84,-17.2,-16.76,-16,-14.92,-11.68,-11.52,-11.6,-11.6,-12.88,-11.68,-10.28,-11.28,-14.2,-14.4,-13.84,-13.68,-12.92,-16.68,-12.4,-14.04,-10.2,-7.4,-7.64,-9.28,-11.92,-15.8,-14.84,-13.16,-9.64,-10.48,-10.76,-12.52,-10.48,-7.44,-8.24,-8.04,-10.16,-11.52,-6.84,-5.32,-5.64,-2.32,-4.56,-3.52,-4.68,-0.04,0.64,-0.48,-0.32,-1.28,-1.88,2.44,4.08,8.2,12.72,11.36,15.16,18.36,17.64,12.8,12.12,13.68,20.64,25.44,29.84,31.32,28.96,30.08,32.36,39.08,40.92,39.16,34.72,30.96,32.12,30.64,24.68,19.68,10.24,-1.2,-8.72,-13.68,-13.4,-14.56,-17.56,-19.2,-17.84,-14.6,-15.48,-15.84,-18.72,-19.68,-18.16,-14.64,-14.32,-15.2,-16.88,-18.96,-14,-11.76,-12.44,-10.2,-9,-11.36,-12.4,-12.28,-9.84,-9.08,-12.6,-14.52,-13.48,-5.44,7.48,27.8,55.16,87.56,122.64,156.24,189.28,214.6,239.24,260.32,276.72,287.84,278.92,253.12,222.2,193.76,173,147.2,115.48,87.32,66.84,54.12,38.88,22.84,8.4,-4.36,-12.28,-19.08,-23.96,-28.52,-36.04,-39.8,-47.48,-48.56,-49.24,-49,-52.44,-50.44,-52.8,-53.72,-48.84,-45.8,-45.12,-43.68,-47.32,-45.08,-45.96,-41.88,-39.68,-41.64,-45.04,-47.2,-45.76,-44.8,-47.12,-47,-49.36,-49.04,-46.76,-44.76,-43.48,-45.16,-49.88,-53.8,-53.24,-47.48,-47.8,-47.48,-48.36,-48.76,-47,-43.68,-44.44,-47.44,-47,-50.6,-49.16,-48.2,-47.68,-47,-45.2,-46.76,-45.88,-44.32,-40.56,-39.2,-38.88,-38,-36.48,-30.32,-31.88,-28.8,-29.2,-28.56,-26.84,-22.6,-20.88,-17.12,-15.2,-13.76,-8.56,-5.84,0.76,2.92,2.04,1.52,3.88,5.08,8.48,9.28,6.48,6.96,8.44,8,7.56,8.32,6.52,5.68,2.64,2.68,1.64,-3.2,-6.68,-6.4,-5,-5.04,-7.04,-5.68,-10.28,-13.08,-10.44,-7.8,-7.12,-9.44,-10.88,-14.36,-13.92,-12.48,-10.88,-11.56,-13.4,-18.08,-13.92,-14,-11.24,-10.56,-11.08,-14.52,-15.44,-15.56,-14.4,-15.16,-15.48,-13.16,-15.2,-12.08,-11.92,-11.72,-13.92,-14.16,-9.84,-10.4,-8.24,-13.32,-15.04,-14.76,-11.12,-10.04,-9.96,-9.72,-12.56,-13.2,-10.24,-8.6,-6.36,-7.88,-9.48,-14.52,-12.52,-12.24,-11.6,-10.2,-11.64,-13.56,-9.28,-4.8,-2.44,-0.44,-4.8,0.72,0.12,1.72,0.32,1,3.28,2.64,1.64,4.4,0.8,1.08,0.12,0,3.68,3.52,5.16,5,3,3.12,6.04,4.96,13.52,13.96,19.08,17.08,17.72,15.44,19,21.92,24.48,24.48,28.32,31.44,33.6,33.6,33.28,32.88,34.88,37.92,36.64,34.6,32.4,28.32,26.76,25.64,20.6,12.84,-0.92,-12.84,-17.32,-17.8,-16.64,-16.52,-17.72,-18.68,-22.12,-19.36,-19.92,-16.8,-18.8,-21.4,-18.28,-17.24,-18.56,-20.08,-21.88,-23.8,-22,-17.12,-12.6,-12.68,-15.16,-15.92,-17,-14.64,-9.52,-12.44,-14.6,-18.08,-15.8,-14.8,-14.92,-10.84,-3.28,11.96,39.28,72.44,108.44,146,182.28,216.6,247.36,268.76,283.2,286.44,273.64,249.92,230.48,216.68,201,181.32,154.6,122.32,95.6,81.84,70.64,53,31.44,15.84,5.88,-2,-11.52,-21.32,-32.08,-39.88,-40.68,-43.04,-46.68,-49.64,-54.04,-55.72,-54.72,-51.64,-51.52,-51.2,-50.68,-51.32,-49.2,-45.36,-46.4,-45.88,-48.4,-50.6,-51.08,-49.12,-48.08,-52,-51.72,-51.28,-48.76,-45.56,-46.44,-44.48,-47.24,-48.48,-49.72,-46.56,-46.84,-48.44,-49.24,-51.08,-51.96,-48.68,-45.96,-45.8,-49.4,-50.56,-47.56,-48.84,-47.96,-48.76,-50.12,-51.56,-52.52,-48.48,-46.2,-43.96,-44.16,-44.04,-44.76,-41.24,-40.08,-38.36,-38.48,-39.12,-33.68,-30.36,-29.2,-24.96,-21.52,-19.4,-15.2,-10.64,-8.44,-8.04,-9.32,-9.04,-9.48,-7.44,-5.08,-3.32,-4.88,-2.16,1.72,7.32,11.6,11.28,9.52,6,6.72,6.12,4.8,4.44,-0.2,-3.68,-4.28,-3.08,-3.68,-2.76,-3.92,-3.72,-4.04,-4.48,-6.48,-7.76,-11.8,-15.04,-15.44,-13.96,-15.52,-15.28,-13.84,-15,-11.28,-9.36,-8.8,-10.36,-12.48,-16,-14.6,-16.4,-21,-17.44,-18.84,-20.68,-18.32,-15.64,-11.12,-12,-13.52,-16.84,-14,-14.72,-14.2,-15.96,-18.56,-18.84,-20.24,-17.28,-15.96,-12.16,-12.4,-15.16,-10.68,-9.24,-10.36,-11.12,-13.32,-18.16,-16.76,-13.28,-11.56,-14.52,-14.16,-14.32,-12.4,-8.56,-4,-5.24,-6.88,-7.08,-7,-4.6,-4.08,-2.68,-1.4,-4.28,-1.68,2,2.08,4.28,6.2,4.12,2.28,4.52,4.4,8.16,10.2,11.84,18.16,22.44,22.44,19.6,19.24,14.2,15.6,20.2,26.16,30.28,29.12,32.88,31.8,35.56,39.04,38.52,36.48,33.64,33.24,35.24,34.88,31.72,25.76,18.96,11.64,3.32,-4.72,-12.76,-16.04,-18.64,-17.76,-14.84,-15.12,-12.92,-17.04,-19.04,-15.16,-14.2,-13.64,-14.76,-13.68,-17.64,-15.96,-14.72,-16.88,-14.88,-14.08,-12.68,-11,-8.04,-10,-10.2,-9.52,-13.64,-11.6,-8.68,-8.04,-10.6,-14.68,-11.68,-1.96,18.52,44.08,73.28,107.52,143.36,178.96,210.68,237.12,254.12,268.84,281.48,293.52,280.44,257.24,230.96,206.72,180.12,153.32,125.16,100.64,84.44,69.28,51.48,33.16,18.88,6.04,-4.92,-14.92,-23.16,-31.56,-33.36,-36.16,-41.32,-45.84,-48.96,-54.28,-53.24,-51.6,-49.84,-52.76,-53.96,-53.24,-48.8,-47.28,-45.08,-46.84,-49,-48.84,-47.36,-45.84,-47.76,-50.16,-48.36,-48.44,-46.92,-45.2,-45.76,-44.16,-46.88,-47.6,-45.84,-45.68,-46.2,-46.68,-51.04,-52.16,-49.08,-46.8,-46.2,-47.16,-48.68,-51.2,-46.08,-47.6,-44.92,-46.72,-48.2,-49.8,-46.2,-46.4,-47.24,-48.8,-47.08,-43.24,-42,-41.48,-41.24,-41.76,-44,-39.96,-37.68,-34.28,-34.52,-33.6,-32.44,-27.16,-23.52,-21.72,-18.36,-17.64,-16.56,-13.68,-8.8,-7.04,-7.2,-7.12,-5.8,-4.44,-0.88,2.36,5.32,6.76,4.56,8.36,9.36,13.92,13.6,9.88,5.96,5.48,2.08,-0.6,-3.24,-3.32,-4.68,-2.64,-2.6,-4.44,-4.72,-6.44,-8.24,-8,-8.76,-9.2,-10.28,-14.68,-17.2,-16.36,-12.04,-12.08,-12,-16.8,-17.08,-15.12,-11.28,-11.56,-14.56,-17.2,-19.56,-19.04,-17.76,-18.92,-19.6,-18.64,-21.48,-18.44,-16.84,-16.64,-14.72,-18.88,-20.92,-20.52,-18.04,-17.48,-19,-20.12,-19.76,-17.88,-17.88,-13.84,-14.04,-16.8,-16.84,-17,-15.24,-18.72,-16.16,-16.48,-18.04,-19.28,-16.92,-13.76,-12.08,-10.88,-10.88,-7.4,-5.08,-1.96,-0.92,-5.36,-6.2,-5.12,-4.28,-4.2,-4.52,-6.44,-6.84,-2.72,1.12,3.44,2.56,-0.32,-3.08,-2.32,-1.08,-0.88,-1.76,-2.16,1.12,4.6,12.8,15.48,17.32,15.6,13.56,15.56,21.72,26.28,27.68,27.04,25.24,28.8,31.04,32.44,34.88,34.72,33.68,31.96,29.8,29.92,28.12,24.84,15.24,6.6,-3.32,-11.84,-14.52,-20,-21.48,-18.68,-15.88,-16.52,-15.6,-17.32,-20.12,-18.52,-17.28,-17.04,-16.8,-21.28,-23.88,-21.52,-18.04,-13.4,-12.4,-12.04,-14.96,-14.76,-13.6,-11.08,-10.68,-12.44,-16.24,-13.92,-15.56,-15,-14.52,-14.68,-10.6,2.68,22.52,51.88,89.2,122.96,160.4,199.64,235.84,263.28,281.76,289.44,281.16,257.04,234.12,216.52,198.52,184.04,156.56,123.32,93.72,76.08,60.44,43.08,21.76,5.44,-5.08,-11.08,-22,-32.36,-41.16,-42.72,-43.52,-44.96,-48.6,-52.44,-56.16,-56.56,-53.2,-52.6,-51.4,-51.44,-52.36,-48.76,-46.84,-42.44,-45.4,-47.96,-48.72,-50.72,-48.72,-48.2,-46.84,-48.32,-48.04,-47.2,-44.2,-44.52,-45.44,-48.84,-49.88,-49.4,-49.04,-48.56,-52.12,-55.28,-55.72,-54.28,-49.16,-46.24,-46.04,-47.32,-48.12,-48.76,-49,-49.52,-48,-50.44,-51.96,-53.24,-51.72,-50.28,-47.28,-49.24,-48.12,-43.4,-41.4,-39.04,-40.12,-39.76,-37.12,-32.6,-30.24,-26.4,-23.88,-21.28,-21.52,-18,-14.76,-12,-11.04,-12.72,-10.76,-7.92,-3.68,-1.36,0.92,-0.96,-3.88,-0.2,1.2,6,6.32,6.04,5.08,2.48,0.32,-1.16,-4.24,-7.12,-7.96,-10.16,-11.52,-9.32,-10.36,-10.16,-8.48,-8.56,-7.36,-10.68,-10.48,-13.48,-15.32,-18.28,-14.24,-12.28,-13.64,-15.2,-17.12,-12.08,-8.56,-9.88,-9.8,-14,-14.84,-12.96,-14.16,-13.44,-15.72,-15.04,-17.44,-15.2,-15.36,-11.32,-8.68,-9,-9.84,-10,-11.08,-11,-12.12,-13.36,-14.4,-12,-10.64,-12.32,-10.28,-12.08,-11.44,-8.8,-4.8,-5.04,-6.84,-9.64,-11.72,-12.04,-12.4,-10.84,-11.36,-13.08,-15,-12.96,-9.44,-7.32,-4.64,-4.64,-6.96,-4.44,-0.16,0,1,0.56,-1.2,0.32,3.88,4.72,6.28,5.48,0.28,-0.36,4.04,8.04,5.12,7.52,7,7.56,12.84,15.68,21.84,20.44,19.52,18.2,22.64,24.92,28.44,30.48,31.52,30.84,35.16,37.8,41.32,42.32,39.6,37.16,38.12,37.88,37.44,34,33.6,29.52,23.48,11.68,2.2,-7.08,-13.36,-11.44,-11.2,-10.68,-14.56,-15.76,-17.24,-13.8,-10.36,-10.36,-12.4,-14.04,-16.64,-15.04,-14.4,-13.32,-10.8,-10.24,-9.2,-12.52,-8,-6.64,-8.16,-9.04,-10.04,-9.76,-8.48,-12.96,-11.24,-12.96,-6.28,6.12,26,51.88,78.32,107.92,132.4,164.48,197.56,228,255.44,273.12,284.04,280.52,264.12,235.64,211.44,189.64,161.12,132.68,108.28,91.52,76,56.48,34.16,16.72,6.68,-1.76,-7.2,-14.52,-22.76,-29.76,-36.44,-39.92,-42.36,-50,-54.56,-53.4,-51.92,-52.72,-49.96,-53.36,-53.8,-50.08,-48.48,-44.72,-44.48,-46.08,-46.6,-47.36,-48.16,-49.16,-50.56,-52.36,-53.52,-52.96,-48.6,-45.76,-47,-48.2,-49.88,-51.48,-47.84,-51.24,-51.6,-52.2,-57.32,-55,-51.24,-49.6,-51.28,-50.28,-50.52,-49.88,-49.68,-46.32,-51.64,-51.96,-52.32,-51.96,-47.12,-48.8,-52.88,-50.28,-50.84,-47.08,-41.56,-40.92,-38.6,-39.16,-38.4,-37.8,-34.32,-31.96,-29,-26.44,-26.32,-24.04,-20.16,-14.96,-15.92,-12.24,-9.96,-9.04,-6,-2.84,-3.64,-3.44,-6.32,0.56,3.84,6.16,6.28,6.68,6.6,8.2,7.48,8.32,4.2,1.12,-2.28,-4.24,-3.6,-6.28,-7.32,-8.4,-8.48,-6.76,-5.72,-5,-6.4,-8.28,-13.04,-13.04,-12.48,-11.4,-13.56,-15.08,-16.92,-14.08,-11.4,-8.84,-10.76,-12.92,-13.24,-13.28,-10.16,-12.4,-13.04,-17.32,-17.76,-18.68,-15.84,-15.88,-16.24,-13.68,-12.68,-11.84,-13.32,-11.24,-12.04,-16.16,-16.68,-18.12,-16.68,-16.52,-15.68,-16.64,-15.88,-13.32,-9.32,-10.64,-6.92,-9.72,-10.44,-9.68,-10.32,-10.8,-12.28,-13.36,-14.4,-14.52,-10.72,-8.72,-3,-7.24,-5.6,-3.28,-2.2,-1.28,-5.8,-3,-4.44,-2.96,-4.72,-1.16,1.8,1.56,1.2,4.8,7.2,6.24,5.36,1.72,-0.32,4.68,9.24,14.96,19.84,22.16,20.96,18.4,21.68,25.96,28.2,28.32,30.48,30.64,34.28,35.36,37.12,37.92,36.04,36.24,38.88,39.4,36.72,33.24,30.64,26.76,21.92,15.08,2.72,-6.12,-14.4,-17.6,-16.56,-15.4,-14.6,-15.88,-15.68,-13.2,-11.88,-10.84,-12.48,-14.44,-15.84,-15.64,-15.16,-13.2,-13.96,-13.72,-15.04,-12.48,-8.4,-6.88,-6.4,-8.12,-11.76,-12.8,-11.48,-11.32,-13.64,-18.56,-22.4,-15.08,-3.6,11.08,24.36,49,76.56,113.88,153.2,190.12,224.52,252.88,274.8,289.96,285,261.44,234.04,204.92,183.24,159.04,128.64,104.96,88.56,73.6,60.12,41.52,28.36,17.84,8.04,-2.48,-16.12,-25.56,-30.44,-34.68,-38.08,-42.56,-47.84,-48.08,-46.92,-48.72,-49,-50.6,-50.44,-46.36,-43.32,-41.88,-42.68,-45.8,-48,-47.48,-45,-43.12,-44.96,-47.48,-49.44,-48.76,-45.32,-44.96,-43.88,-43.2,-46.04,-47.28,-44.48,-43.96,-42.24,-45.44,-51.2,-49,-48,-48.44,-45.92,-45.64,-46.52,-45.8,-45.72,-45.04,-45.2,-46.6,-49.88,-48.36,-47.12,-45.96,-45.92,-44.32,-43.72,-40.6,-35.56,-33.88,-32.68,-34.36,-31.2,-30.96,-27.68,-26.64,-23.96,-27.36,-26.6,-24.08,-19.36,-14.36,-9.72,-5.8,-2.32,4.36,7,10,9.32,5.84,1.48,0.88,3,4.28,4.56,3.36,2.52,4.76,6.52,7.52,5.48,-0.48,-3.96,-7.52,-5.92,-7.28,-10.92,-13.36,-14.84,-14,-10,-6.96,-5.08,-6.84,-9.72,-11.68,-12.16,-13.76,-16.04,-19.24,-19.8,-21.08,-18.72,-16.04,-15.04,-15.92,-12.96,-12.96,-12,-12.12,-13.68,-15.44,-17.2,-19.72,-19.6,-20.96,-20.68,-19.8,-17.8,-11.84,-7.88,-7.76,-10.6,-13.68,-19.28,-19.24,-15.16,-14.68,-15.44,-19.56,-20.32,-18.56,-13.84,-11.92,-9.76,-11.6,-10.32,-12.6,-11.44,-11.64,-12.48,-15.92,-19.72,-19.2,-15.36,-14.6,-12.56,-10.12,-9.44,-7.44,-3.16,-0.08,-1.4,-0.24,-3.72,-3.16,-3.16,-3.16,-3.56,-2.84,2.16,10.36,16.12,19.08,19.28,15.44,9.64,13.2,18.2,21.12,24.72,24.4,23.68,30.88,36.2,39.96,39.68,37.56,31.64,29.6,31.64,28.24,28.48,22.4,12.04,3.6,-6.24,-11.92,-12.44,-16.56,-16.8,-16.04,-16.04,-16.16,-17.96,-18.16,-20.84,-18.04,-17.64,-15.12,-14.76,-14.44,-17.96,-17.12,-13.48,-10.8,-12.76,-12.76,-12.44,-9.76,-10.72,-10.84,-10.4,-10.76,-12.24,-10.96,-10.68,-7.92,-6.16,1.56,22.72,53.52,89.76,127.44,165.64,204.68,235.2,261.76,282.16,283.52,269.92,239.8,213.72,199.36,188.56,170.36,145.84,108.8,79.24,61.16,49.64,32.32,15.88,-1.52,-12.96,-21.04,-27.2,-31.32,-36.04,-38.2,-42.8,-45.12,-46.92,-48.08,-49.4,-49.44,-50.92,-50.76,-49.64,-46.84,-45.16,-46.28,-47.04,-47.48,-44.28,-43.56,-43.16,-46.12,-46.36,-48.68,-47.24,-44,-42.36,-43.04,-45.92,-42.88,-40.72,-41.28,-43,-46.28,-46.92,-48,-48.36,-48.68,-46.2,-50.92,-51.28,-48.12,-46.08,-46.04,-48.84,-49.32,-49.16,-46.52,-44.2,-44.32,-46.56,-49.92,-50.4,-48.28,-43.76,-39.32,-38.24,-37.32,-39.68,-38.24,-36.52,-32.88,-34.52,-38,-40.84,-38.08,-33.8,-28.36,-25.84,-22.96,-19.48,-14.44,-10.88,-8.52,-6.4,-3.36,-3.16,-1.32,-0.8,1.68,1.72,2.64,0.72,3.96,8.68,12.04,9.92,8.72,4.96,5.2,4.24,-0.04,-4.48,-7.92,-10.84,-10.08,-6.96,-3.4,-3.56,-4.08,-3.04,-3.44,-4.44,-5.08,-9.88,-12.96,-15.04,-14.56,-12.6,-12.6,-13.36,-12.48,-10.64,-9.28,-8.52,-7.16,-8,-10.6,-14.36,-15.68,-13.04,-12.96,-16.36,-17.6,-16.32,-12.72,-8.96,-6.56,-3.84,-7.32,-8.2,-7.8,-6.8,-7.92,-9.32,-14.16,-17.6,-17.96,-13.96,-9.44,-8.56,-7.08,-9.48,-7.04,-8.12,-5.72,-8.76,-12.96,-16.32,-14.4,-13.12,-13.6,-11.68,-11.12,-10.36,-7.84,-3.6,-2,-1.52,-3.48,-4.08,-2.68,0.08,0.12,0.16,-2.16,-2.68,-0.44,6.28,8.16,10.12,12.2,14.8,19.28,21.6,23.28,20.6,13.96,13.44,20.52,28.44,32.32,38.76,40.64,40.44,41.44,43.8,40.16,37.52,31.16,25.6,28.96,27.4,23.52,12.56,1.52,-6.84,-11.96,-12.28,-11.32,-12.88,-13.44,-14.08,-14.64,-12.24,-15.2,-16,-17.04,-18.52,-17.48,-12.76,-12.68,-13.08,-16.24,-15.04,-14.6,-15.16,-17.96,-21.72,-24.84,-28.48,-27.72,-26.16,-29.64,-26.88,-22.4,-9.56,15.92,48.16,75.8,106.6,141.92,181.8,222.64,250.6,265.64,267.56,256.4,223.24,194.68,174.32,150.92,119.4,87.28,68.24,57.36,45.2,26.2,9.44,-5.16,-20,-29.04,-35.24,-40.52,-43.72,-50.76,-53.96,-55.88,-53.96,-50.92,-52.24,-56.12,-58.88,-56.48,-54.44,-55.4,-52.56,-50.92,-53.16,-50.32,-48.76,-45.68,-42.8,-44.84,-50.08,-49.96,-48.8,-49.68,-48.44,-53.32,-53.52,-50.92,-48.2,-42.4,-42.88,-44.68,-43.92,-44,-47.28,-47.12,-48.96,-50.8,-53.76,-51.76,-50.08,-48.68,-45.96,-48.12,-47.64,-45.68,-41.2,-43.4,-41.64,-42.36,-42.4,-41.4,-39.64,-37.72,-37.2,-34.88,-32.16,-28.64,-22.44,-17.68,-16.2,-14.32,-14.6,-10.64,-6.84,-4.92,-4.2,-3.12,1.28,9.6,16.08,19.72,17.92,16.76,20.32,19.08,21.6,18.64,18.6,13.52,9.4,11.44,10.68,13.96,11.48,8.28,6.44,10.2,8.68,8.44,8.16,6.2,2.28,-2.96,-2.08,-2.08,-1.68,-4.28,-3.64,-1.72,0.44,3.44,2.08,2.04,-2.2,-4.36,-6.4,-9.44,-12.28,-12.08,-15.36,-14.88,-11.36,-8.32,-6.08,-5.12,-3.4,-1.84,-1.32,2.68,8.68,13.64,26.44,47.04,66.24,90.44,120.96,151.16,181.4,205.36,229.08,258.72,287.32,314.28,336.44,359.2,380.88,395.52,395.88,362.24,304.72,240.88,191.16,141.08,85.88,32.6,-10.72,-39.88,-56.92,-64.04,-70.24,-75.6,-77.16,-73.68,-68.84,-65.68,-66.24,-64.08,-66,-61.88,-60.68,-60.16,-62.04,-66.48,-71.4,-74.36,-73.32,-75.96,-76,-79.8,-84.6,-84.88,-81.72,-76,-69.2,-69.36,-69.76,-70.88,-72.32,-74.76,-75.04,-70.84,-72.04,-68.16,-65.24,-63.64,-61.4,-61.48,-65.64,-68.8,-70.36,-64.52,-68.92,-71.2,-74.4,-75.24,-73.56,-70.8,-69.88,-72.12,-71.68,-71.84,-71.28,-71.4,-69.76,-72.92,-71.2,-71.64,-71.08,-65.88,-65.12,-62.16,-61.32,-56.84,-51.48,-47.6,-44.04,-45.92,-44.24,-43.44,-37.92,-36.36,-32.8,-29.52,-26.68,-19.8,-13.16,-6.72,-3.04,-4.2,-2.4,1.68,2.36,2.2,4.84,1.52,1.08,1.4,5.16,7.24,7.12,8.76,6.52,7.32,11.08,12.36,10.36,8.32,4.12,1.76,2.44,5.04,8.08,7.2,8.04,7.56,10.32,11.92,10.8,11.08,8,7.72,5.2,5.84,5.36,4.28,3.12,3.96,6.4,5.84,6.52,4.16,2.08,1.28,4,4.56,4.12,0.68,-3.76,-3.92,-1.08,-1.12,-0.68,-2.08,-4.08,0.76,2.88,3.48,1.44,-3.96,-7.52,-5.96,-4.64,-2.92,-2.88,-3.72,-5.2,-4.72,-2.72,-3.76,-1.6,-1.68,-5.4,-2.48,-1.64,-2.28,-3.32,-5.68,-2.52,-0.2,2.44,6.64,8.64,8,6.4,10.44,14.64,13.52,13.08,9.68,7.84,6.8,7.24,5.6,5.72,-0.72,-3.2,-4.08,-2.16,-1.72,-0.88,-1.24,-4.56,-0.28,-0.64,-3.04,-3.4,-3.72,-6.56,-5.28,-2.32,-3.28,-4.52,-4.36,-6.04,-2.12,-2.36,1.08,1,-2.44,-3.64,-3.96,-3.04,-4.68,-5.84,-7.44,-8.4,-10.12,-6.88,-2.08,0.68,-3.92,-5.04,-4.28,-5.52,-0.84,-1.8,-5.48,-8.48,-8.2,-5.32,-4.24,-5.88,-4.72,-5,-5.72,-1.96,-2.52,-3.6,-3.8,-4.64,-2.48,-0.68,-1.36,-3.52,-7.4,-7.88,-6.8,-3.12,-0.8,-1.08,-3.4,-4.4,-5.6,-2.56,-2.24,-6.28,-6.76,-9.76,-7.88,-5.4,-3.36,-2.36,-2.88,-4.08,-4.48,-1.6,-3.8,-5.52,-7.96,-8.84,-5.68,-3.8,-2.84,-4.4,-3.36,-4.24,-2,-2.44,-2.96,-5.12,-3.36,-6.12,-6.64,-3.8,0.28,1.2,0.24,4.6,7.44,13.32,15.52,17.08,10.72,11.72,14.4,20.56,24.2,24.08,23.36,23.28,25.4,28.64,29.64,30.6,33.04,30.8,28.4,27.32,25.04,25.36,22.04,12.08,7.28,-0.92,-10.76,-16.32,-18.12,-16.04,-15.56,-14.92,-13.36,-16.36,-19.64,-21.16,-19.6,-18.72,-19.32,-18.4,-20.12,-19.8,-20.68,-15.76,-14.04,-12.16,-12.64,-11.76,-12.16,-11.76,-8.2,-10.24,-14.88,-15.76,-14.64,-13.52,-12.2,-6.16,3.64,22.52,53.88,87.68,121.24,157.84,196.52,227.44,255.72,275.52,288.8,283.08,259.4,227.52,206.12,190.88,176.16,149.12,116.64,87.32,67.84,52.68,33,12.92,-3.76,-16.48,-26.24,-31.36,-36.56,-42.72,-45.52,-50.44,-56,-56.48,-60.96,-55.92,-59.56,-59.76,-61.48,-58.56,-54.28,-53.52,-52.68,-51.88,-53.8,-54.8,-52.44,-53.96,-53.6,-56.64,-54.36,-54.88,-51.68,-54.76,-55.4,-56.6,-54.08,-54.36,-48.2,-51.2,-52.4,-55.88,-56.44,-52.8,-54.36,-52.52,-51.92,-52.64,-51,-46.16,-45.64,-43.72,-45.4,-47.24,-45.48,-43,-44.52,-44.8,-46.28,-46.52,-41.12,-36.92,-32.2,-32.36,-32.8,-30.76,-26.64,-21.56,-15.92,-16.28,-17.76,-20.12,-12.6,-8.2,-4.72,-1.52,1.48,3.32,7.84,13.8,15.92,20.16,21.64,21.08,21.92,23.4,24.88,26.08,25.28,24.92,29.56,31.92,31.68,31.88,28.64,26.6,26.52,28.8,22.92,22.52,19,17.12,16.52,17.56,16.12,13.24,9.6,4.6,2.76,3.24,2.6,1.48,-0.76,-5.88,-6.12,-6,-6.36,-7.08,-8.36,-10.08,-12.64,-13.72,-14.6,-14.28,-14.92,-18,-17.32,-18.04,-18.48,-20.72,-22.4,-20.32,-20.64,-18.36,-21.08,-25.16,-23.84,-21.52,-20.48,-19.6,-19.88,-22.56,-22.84,-27.04,-22.8,-21.04,-20.44,-20.88,-22.52,-23.48,-24.12,-20.84,-19.84,-22.88,-22.8,-23.48,-24.04,-20.32,-20.96,-21.32,-20.64,-21.88,-19.24,-16.48,-13.84,-14.24,-11.84,-9.28,-7.68,-7.24,-6.8,-7.32,-6.4,-5.96,-4.32,-2.92,-4.32,-6.16,-6.12,-8.76,-6.72,-3.48,0.28,-2,-3.28,-2.6,-1.6,4.08,6.16,7.28,8.48,9.52,9.28,10.32,11.96,16.16,20.72,21.76,22.16,27.76,27.72,29.52,31.8,31.92,34.16,35.24,34,33.04,27,27.16,23.8,28.64,25.16,17.76,9.04,-3.16,-10,-12.96,-14.72,-15.6,-19.48,-24.36,-23.52,-21.52,-17.92,-17.88,-20.4,-21.72,-20.48,-20.88,-22.72,-20.44,-20.16,-22.84,-19.8,-18.84,-16.84,-15.68,-14.12,-16,-16.64,-12.08,-11.6,-10.92,-16.56,-17.28,-18.12,-16.76,-16.56,-17.4,-15.08,-9.88,6.68,34.68,64.32,95.04,128.68,164.56,199,233.2,253.52,273.12,282.52,287.88,279.32,257.32,227.08,202.24,181.92,158.76,128.28,96.2,75.8,61.2,47.56,30.16,14.4,2.72,-4.76,-11.64,-22.08,-28.92,-36.48,-37.84,-41.36,-45.44,-48.8,-53.4,-54.2,-53.76,-54.6,-51.36,-52.96,-51.88,-51.56,-46.76,-46.44,-46.96,-48.68,-50.8,-52.32,-51.92,-48.84,-47.48,-50.52,-53.32,-48.2,-47.48,-45.16,-45.36,-50.04,-51.72,-51.56,-44.68,-44.2,-47.68,-49.52,-50.28,-51.08,-48.8,-47.32,-47.28,-50.56,-52.4,-49.88,-50.8,-52.52,-49.52,-50.96,-51.32,-50.32,-49.24,-49.16,-47.76,-48.2,-50.16,-47.52,-44.4,-40.96,-41.76,-42.48,-44.44,-42.92,-42.44,-39.44,-39.24,-38.08,-33.72,-31.12,-26.2,-22.56,-19.48,-21,-22.72,-16.36,-11.32,-7.96,-7.68,-5.24,-9.08,-5.28,-3.52,0.52,0.84,2.28,-1.68,1.8,1.52,0.52,-0.08,-0.68,-0.2,-1.88,-2.04,-3.56,-4.68,-9.28,-8.76,-8.6,-7.04,-7.92,-9.12,-13.28,-16.12,-13.2,-12.48,-10.68,-11.4,-13.68,-18.68,-16.48,-14.88,-12.8,-13.8,-14.84,-16.2,-14.76,-11.16,-9.48,-10.88,-11.96,-14.72,-14.28,-12.56,-14.4,-14.72,-13.48,-15.4,-14.6,-13.12,-13.68,-12.12,-12.4,-12.52,-10.76,-9.52,-9.08,-9.24,-10.88,-11.12,-10.96,-10,-10.28,-10.56,-11.08,-13.4,-13,-9.16,-9.36,-8.92,-11.44,-12.64,-13.24,-7.56,-8.72,-8.56,-6.6,-6.48,-1.68,-0.72,1.92,2.12,1.8,4.12,5.88,4.8,2.72,1.44,1,1.12,3.08,6.2,6.56,7.28,5.08,3.76,3.72,3.16,3.16,4.56,6.12,4.44,7.28,11,12.4,16.44,20.68,20.2,22.72,22.08,21.8,23.2,27.16,27.72,33.16,37.4,37.4,37.24,35.8,37.96,39.12,40.56,40.04,40.44,35.48,34.92,29.84,29.32,20.96,12.36,1.4,-9.64,-16.24,-14.28,-13.12,-14.24,-15.56,-18.2,-16.16,-12.92,-11,-11.44,-12.64,-17.2,-16.4,-15.56,-15.08,-14,-14.84,-15.8,-14.36,-11.08,-9,-9.64,-10.56,-11.92,-12.16,-9.88,-11,-9.92,-12.4,-15.12,-17.12,-16.32,-9.84,-1.32,12,36.4,69.48,106.12,147.04,188.44,220.6,244.76,267.16,282.28,292.52,290.52,268.28,241.92,222.4,206.6,188.72,161.56,129.72,102.24,87.28,75.32,58.92,38.16,17.4,1.44,-7.84,-11.48,-20.04,-29.72,-37.68,-41.76,-42.8,-46.44,-49.48,-55.32,-55.6,-58.44,-57.48,-54.76,-54.08,-51.84,-55.52,-55.24,-53.32,-51.64,-49.6,-51.16,-53.16,-55.16,-54.72,-51.76,-50.84,-49.08,-50.36,-53.2,-48,-50.88,-48.84,-51,-53.96,-56.44,-54.44,-53.56,-52.76,-53.32,-53.92,-54.64,-50.84,-48.72,-49.48,-53.28,-55.16,-55.2,-54.24,-48.88,-51,-53.08,-55.16,-58.64,-58.36,-53.32,-48.52,-46.2,-46.96,-49.72,-48.76,-46.88,-43.96,-43.44,-43.68,-42.88,-38.84,-36.4,-30.96,-30.84,-28.96,-28.64,-23.56,-19.52,-18,-18.04,-18.24,-18.12,-13.96,-12.72,-8.2,-8.08,-9.6,-8.24,-3.92,1.56,8.72,10.84,10.52,9.64,10.72,12.04,6.24,7.2,2.2,-1,-0.6,0.32,1.24,3.08,0.8,2.44,0.76,0.16,0.6,-3.8,-4.32,-8.4,-10.32,-6.48,-6.08,-9.12,-12.24,-12.36,-11.88,-6.24,-7.2,-6.88,-9.64,-12.32,-12.36,-12.96,-14.12,-17.12,-18.64,-18.64,-12.96,-9.4,-6.84,-7.04,-10.84,-11.48,-11.36,-11.2,-13.24,-17.68,-16.64,-21.56,-18.04,-13.32,-11.68,-15,-15.32,-14.36,-13.2,-8.96,-10.92,-10.76,-16.72,-16.92,-17.04,-14.12,-13.76,-13.04,-15.04,-15.12,-13.04,-8.16,-2.8,-3.16,-2.44,-3.68,0.64,0.28,-1.12,-2.64,-2.92,-4.4,-4.56,2.96,4.16,3.52,5.16,2.6,2.88,6.36,7,4.92,-0.04,0.6,2.36,6,8.4,11.64,17.48,19.6,20.96,22.24,22.56,20.88,20.6,22.28,27.32,30.84,32.72,34.48,34,34.4,36.96,40.2,38.6,37.04,35.56,31.96,31.64,31.24,22.44,12.08,-1,-13.24,-16.76,-16.52,-14.76,-13.68,-14.12,-16.68,-16.32,-14,-12.2,-13.4,-17.12,-19.28,-17.44,-15,-15.48,-17.16,-16.4,-15.44,-13,-11.64,-11.24,-10.56,-10.76,-9.92,-12.64,-12.12,-13.36,-16.72,-18.04,-19.6,-15.88,-8.08,5.28,27.84,54.4,88.12,126.92,164.84,204.24,239.84,263.88,282.52,293.28,286.44,260.44,234.36,206.88,180.52,151.08,119.76,96.84,82,71.76,58.52,39.36,24,10.88,0.24,-12.52,-22.48,-33.12,-38.52,-41,-43.28,-50.36,-50,-53.64,-53.2,-52.48,-52.92,-52.92,-54.48,-52.4,-51.56,-48.44,-46.04,-48.64,-50.12,-48.24,-47.32,-47.96,-50.52,-51.72,-55.16,-52.24,-47.8,-46.76,-45.72,-46.64,-46.88,-44.44,-44.6,-43.24,-47,-51.4,-53,-55.32,-50.84,-48.76,-49.24,-49.16,-52.08,-51.2,-48.56,-46.2,-43.28,-45.88,-51.76,-50.08,-49.96,-48.12,-48.48,-51.36,-50.04,-46.04,-43.16,-39.28,-36.44,-37,-34.92,-34.68,-32.52,-27.96,-28.08,-27.72,-27,-22.2,-16.28,-14.88,-17.64,-18.12,-15.68,-12.24,-7.76,-5.16,1.12,-0.04,-0.16,3,7.6,8.64,11.12,11.12,7.8,7,7,5.2,6.24,2.4,3.16,4.08,4.12,2.52,1.32,-1.32,-3.68,-0.4,-2.8,-1.64,-3.56,-6.32,-9.24,-9.2,-8.48,-10.28,-9.96,-9.52,-8.56,-9.36,-8.8,-8.44,-6.72,-8.68,-10.72,-9.56,-9.56,-9.56,-12.72,-12.68,-18.76,-17.96,-12.64,-10.56,-10.88,-11.4,-11.68,-10.68,-8.92,-8.76,-11.64,-12.44,-14.56,-15.6,-11.88,-10.08,-11.68,-11.48,-12.8,-12.44,-10.8,-7.72,-10.92,-11.8,-11.56,-10.44,-10.64,-8.68,-9.08,-11.36,-13.2,-14.16,-7.68,-9.28,-7.44,-8.92,-9.4,-7.44,-3.04,-1.44,-2.24,-2.76,-4.8,-0.28,0.56,1.84,1.04,0.36,-1.8,0.56,-0.08,1.68,2.88,3.64,2.48,10.56,16.08,18.8,20.12,17,14.8,13.48,17.96,19.92,23,25.72,26.96,29.44,39.28,40.4,44.96,42.72,38.12,36,33.76,32.48,31,29.12,19.36,14.88,4.96,-4.44,-9.48,-13.28,-14.68,-14.12,-13.92,-12.88,-12.96,-14.16,-17.6,-18.64,-17.48,-15.92,-16.84,-17.08,-15.24,-13.2,-10.68,-12.24,-12.68,-12.56,-12.64,-13.88,-10.68,-11.68,-13.4,-17.68,-20.48,-19.84,-18.24,-12.12,-2.52,9.08,31.72,61.68,94.52,133.4,175.64,211.96,244.36,268.08,281.16,277.64,251.44,220.92,194.64,173.2,148.96,118,86.04,70.2,55.44,37.76,20.12,0.8,-9,-20.48,-31.6,-35.36,-37.76,-42.08,-43.08,-47.92,-48.84,-51.84,-50.92,-50.84,-52.44,-53.84,-55.68,-51.52,-45.8,-44.48,-46.8,-46.08,-48,-44,-42,-42.68,-45.6,-45.96,-45.24,-45.52,-46.32,-44.16,-44.4,-46.04,-45.28,-42.48,-38.52,-38.6,-41.64,-44.16,-45.92,-47.44,-45.96,-46.16,-46,-47.76,-47.12,-45.84,-42.56,-40.72,-39.56,-42.6,-44.48,-42.16,-41.88,-43.44,-43.8,-42.84,-44.68,-41.6,-36.48,-36.92,-33.44,-33.72,-31.8,-30.24,-28.88,-29.12,-30.12,-30.56,-27.72,-23.04,-17.28,-13,-6.64,-1.92,0.32,4.16,6.16,10.48,9.6,7.92,3.72,3,4.28,4.36,4.68,5.52,3.36,6.24,4.4,5.52,3.72,0.2,-1.6,-1.36,-5.76,-8.44,-8.08,-9.8,-11.32,-8.56,-4.88,-5.72,-5.44,-5.24,-6.92,-7.52,-9.48,-11.36,-14.56,-16.96,-19.36,-16.92,-12.6,-10.76,-8.72,-7.64,-10.08,-5.96,-3.96,-5.52,-6.52,-10.28,-13.48,-12.08,-11.8,-10.48,-9.6,-10,-7.32,-4.52,-3.08,-1.92,-5.84,-6.28,-8.24,-10.08,-7.52,-9.08,-10.84,-12.4,-11.48,-9.04,-5.44,-2.8,-3.4,-5.28,-7.24,-6.88,-5.04,-6.92,-8.4,-13.84,-15.68,-16.64,-11.16,-4.92,-4.44,-5.64,-6.84,-4.4,-4.6,-0.2,2,-3.28,-6,-4.96,-0.64,5.36,8.36,11.56,17.04,22.6,25.2,24.84,23.8,21.04,21.08,24.16,27.88,33.32,32.12,32.52,35.12,40.84,45.72,45,42.56,39.08,36.08,36.2,34.16,28.08,20.96,8.56,-1.64,-7.28,-10.92,-10.04,-9.96,-12.64,-15.08,-17.56,-13.64,-13.36,-13.24,-18.36,-21.4,-18.84,-15.08,-15.76,-14.48,-15.44,-15.36,-13.12,-7.6,-8.04,-6.84,-6.48,-12.44,-10.72,-12.88,-10.28,-12.48,-16.12,-18.8,-14.72,-3.88,13.36,37,66.6,96.84,131.12,172,209.8,242.68,268.36,285.24,291.64,276.72,248.88,217.96,191.2,172.12,141.72,114,93.36,79.32,62.32,43.28,24,12.08,3.6,-7.28,-19.92,-33.56,-39.4,-40.44,-43.8,-47.44,-50.96,-55.12,-54.24,-51.48,-48.8,-50.64,-53.12,-55.92,-52.72,-50.92,-51,-49.2,-48.4,-49.12,-50.84,-50.24,-48.4,-48.68,-51.96,-53.52,-54.04,-49.04,-47.68,-47.76,-45.48,-48.24,-48.16,-43.72,-47.28,-49.68,-53.76,-55.04,-50.36,-51.12,-51.68,-50.32,-53.04,-50.16,-48,-47,-46.72,-47.2,-49.72,-52.08,-51.36,-48.84,-49,-45.72,-46.2,-47.76,-43.64,-40.96,-35.92,-32.84,-32.4,-30.84,-26.4,-22.76,-23.36,-19.28,-22.16,-22.04,-16.88,-10,-5.44,-3.08,-3.16,-5,-1.4,2.32,5.52,3.84,3.36,2.6,3.48,7.48,7.84,8.44,6.12,3.08,1.36,4.16,3.48,0.76,-1.36,-4.52,-3.8,-3.36,-4.24,-8,-11.4,-10.44,-9.56,-7.52,-6.08,-8.16,-8.8,-10.48,-12.6,-11.8,-10.08,-11.48,-13.04,-13.76,-13.36,-8.32,-7.32,-8.12,-9.68,-12.84,-11.52,-11.44,-11.52,-13.72,-13.24,-16.8,-14.88,-13.08,-12,-10.08,-11,-12.72,-14.48,-13.76,-11.56,-14.24,-16.16,-17.32,-15.96,-13.88,-14.84,-13.84,-14.68,-14.64,-16.68,-11.6,-12.4,-12.36,-11.12,-10.72,-11.64,-10.08,-9.76,-9.8,-11.68,-13.76,-13.84,-9,-7.04,-8.64,-9.68,-11.72,-9.52,-6.08,-3.8,-1.6,-3.8,-3.48,-1.44,-2.04,0,4.08,1.88,-2.2,1.56,2.6,5.44,5.72,8.28,12.08,15.12,17.52,19.72,19.76,19.6,16.44,18.72,26,31.36,33.4,30.28,30.56,33.08,38.72,41.88,40.36,38.84,32.88,31.6,33.4,29.68,26,12.44,1.6,-5.44,-11.32,-14.84,-15.08,-16.68,-18.12,-17.84,-15,-12.32,-18.24,-16.92,-18.6,-18.12,-15.08,-16.12,-15.92,-17.4,-17.56,-14.36,-10.96,-11.6,-11.76,-13.04,-14.8,-13.76,-10.44,-8,-8.92,-11.8,-16.56,-15.08,-15.2,-7.2,8.32,26.76,54.76,86.48,125.68,164.8,197.2,224.92,247.16,266.12,285.44,293.16,280.28,252.24,224.12,201.44,178.4,147.32,109.84,86.24,67.72,54.48,36.64,20.68,6.16,-6,-16.04,-26.2,-33.36,-37.96,-39.88,-40.96,-47.48,-51.32,-51.08,-51.44,-51.24,-52.36,-54.08,-55.56,-52.84,-48.92,-48.08,-49.68,-51.92,-47.4,-47.04,-46.08,-47.84,-50.04,-50,-52.2,-49.04,-48.6,-48.72,-47.6,-49.76,-48.44,-46.56,-44.84,-44.88,-47.52,-51.92,-50.88,-50.12,-49.32,-50.92,-53.36,-52.6,-53.64,-46.96,-46.6,-47.56,-50.76,-51.56,-51.48,-49.08,-47.12,-49.24,-50.36,-51.04,-49.6,-47.08,-43.08,-41.32,-39.96,-39.88,-38.12,-35.12,-33,-32.28,-35.28,-34.32,-28.84,-25.44,-21.32,-21.12,-20.6,-22.44,-20.76,-17.16,-15.44,-10.96,-12.2,-8.32,-5.48,-0.32,4.2,5.6,3.6,0.92,3.48,7.44,8.76,5,0.64,-3,-4.8,-4.68,-0.28,0.32,-2.8,-6.16,-8.04,-6.48,-7.76,-6.68,-11.2,-13.8,-14,-14.76,-13.56,-14.2,-15.64,-14.88,-15.24,-11.64,-11.44,-11.76,-14.84,-16.68,-15.36,-13.24,-13.36,-14.12,-16,-17.72,-16.56,-15.28,-14.88,-12.52,-16.64,-18.8,-17.04,-14,-11.8,-13.48,-15.44,-17.44,-15.36,-14.04,-10.88,-9.28,-12.8,-14.36,-15.68,-16.96,-10.12,-10,-12.72,-14.24,-15.36,-15.52,-15.48,-16,-17.64,-17.08,-12.84,-13.72,-15.08,-15.4,-13.28,-16.6,-15.68,-13.2,-11.28,-8.92,-10.44,-8.6,-7.16,-3.88,-1.16,-0.36,0.52,3.56,5.32,4.76,2.52,3,2.68,4.6,7.16,10.08,13.04,16.64,19.76,22.08,27.36,29.92,27.2,26.44,24.12,27.76,33.36,36.88,41.32,43.52,42.52,46.2,47.28,48.48,47.76,44.48,40.04,37.16,35.56,31.08,25.96,15.64,5.24,-4.48,-10.48,-4.72,-3.72,-9.4,-13.08,-12.36,-8.88,-10,-10.56,-13.04,-14.24,-18.68,-14.44,-11.8,-10.48,-11.32,-11.92,-13.68,-14.56,-11.2,-13,-14.72,-18.08,-19.44,-20.92,-17.68,-23.52,-27.72,-29.04,-30.44,-20,3.44,35.96,71.96,109.4,149.44,188.96,224.36,250.56,268.28,277.6,271.24,249.16,217.04,191.84,169.64,149.4,123.52,93.96,72.88,57.52,41.2,20.44,3.48,-10.24,-19.44,-28.32,-37.32,-43.2,-48.12,-48.32,-50.28,-51.6,-52.28,-54.44,-57.76,-61.72,-60.96,-58.92,-56.32,-52.96,-53.92,-50.8,-48.92,-48.32,-45.32,-47.88,-51.68,-50.2,-48.84,-51.96,-49.36,-51.28,-51.56,-53.24,-51.16,-52.12,-51.16,-46.52,-50.4,-49.08,-48,-45.52,-46.96,-48.08,-47.44,-45.44,-46.76,-44.36,-48.4,-51.4,-52.4,-48.88,-45.92,-45.64,-44.32,-47.76,-51.32,-48.76,-46.28,-44.28,-43.68,-44.24,-43.24,-40.64,-37,-34.68,-33.92,-33.44,-32.16,-30.96,-27.8,-22.44,-21.12,-18.16,-18.68,-16.56,-11.76,-5.24,-2.52,-1.32,1.44,6.96,8.92,14.16,16.2,15.72,14.16,12.96,18.44,18.52,18.28,16.96,14.68,16.92,18.72,20.36,17.48,13.72,7.8,8.2,11.68,10.52,5.28,5.48,4.44,4.08,5.88,4.32,3.36,0,3.24,7.32,8.52,6.04,2.76,-0.2,-2.24,-3.2,-4.16,-4.48,-3.68,-4.12,-4.12,-1.56,1.48,0.48,2.52,5.92,8.36,14.04,26.6,45.36,62.68,78.4,104,131.36,166.4,197.04,218.12,237.24,258.36,286.76,318,344.76,369.44,388.32,401.64,399.28,368.76,310.08,247.32,195.16,152.32,105.36,61.4,20.6,-14,-41.28,-60.68,-68.76,-73.6,-76.52,-80.12,-79.44,-78.76,-75.32,-71.64,-71.12,-71.48,-69.36,-72.2,-72.12,-71.8,-74.76,-73.88,-78.8,-84.16,-86.44,-85.88,-88.52,-93.72,-96.72,-98.64,-98.36,-96,-92.44,-87.48,-90.8,-93.12,-98.36,-97.04,-93.44,-89.96,-84.64,-79.72,-74.84,-67.96,-64.92,-62.48,-62.88,-66.8,-68.92,-71.36,-71.48,-70.12,-70.56,-72.96,-72.76,-70.92,-69.12,-70.16,-71.32,-73.72,-74.24,-75.12,-77.52,-74.84,-75,-73.44,-73.8,-71.48,-68.24,-70.36,-69.32,-66.36,-61.6,-60.04,-58.56,-55.32,-54.64,-56.08,-51.4,-44.04,-39.24,-34.76,-32.44,-30.32,-23.56,-16.84,-13.96,-10.24,-9.72,-7.36,-2.6,0.84,5.6,3.12,6,6.64,7.92,13,12.88,18.72,14.88,12.72,13.24,13.56,13.28,15,12.04,12.84,13.72,17.4,17.68,14.8,14.12,15.12,17.2,17.92,18.2,13.96,11.6,8.36,11.28,11.8,13.52,12.08,11.32,9.28,12.36,14.12,16.32,14.32,12.48,8.8,9.12,8.72,7.6,9.24,6.88,6.28,5.24,9.24,11.6,12.56,9.72,6.6,3.64,2.96,1.36,-2.04,-2.8,-2.72,0.32,1.84,4.96,5.16,3.68,0.76,-0.88,0.04,1.32,1.2,-1.64,-3.36,-1.56,2.44,6.44,9.28,6.68,6.84,9.04,13,18.36,20.56,16.96,16.92,14.84,17.44,17.12,18.04,15.76,15.08,12.16,14.24,16.08,10.4,11.04,8.4,6.04,5.68,3.72,1.92,0.56,-3.4,-1.16,0.6,-1.08,1.4,-0.84,-3.96,-5.56,-3.44,-5.64,-6,-7.48,-12.6,-11.4,-8.76,-7.12,-6.96,-6.24,-8.52,-7.52,-6.6,-6.12,-7.8,-7.64,-7.6,-11,-10.32,-11.32,-10.68,-9.8,-9.56,-7.64,-7.92,-3.72,-4.52,-3.88,-5.48,-5.28,-6.44,-2.96,-5.44,-6.32,-10.6,-8.76,-5.76,-3.84,-2.12,-4.76,-6.56,-6.96,-5.72,-4.6,-8.68,-10.24,-12.48,-12.36,-8.6,-9.92,-10.88,-10.84,-14.16,-9.8,-7.6,-8.84,-10.56,-10.32,-12.2,-16.64,-14.04,-13.76,-13.72,-13.96,-16.84,-13.88,-10.28,-10.72,-10.4,-12.44,-14,-11.88,-10.64,-9,-12.32,-13,-17.04,-16.44,-14.36,-7.48,-4.84,-9.28,-10.8,-10.16,-8.88,-4.88,-9.72,-9.2,-11.44,-10.24,-5.44,-0.04,5.08,9.04,11.44,14.84,15.2,12,8.24,9.44,15.44,21.92,23.6,24.12,22.96,22.52,25.6,30.56,33.8,32.4,28.96,27,26.28,25.48,23.44,19,16.84,7.56,-2.48,-13.96,-17.04,-17.16,-17.72,-20.88,-21.24,-23.24,-22.16,-22.84,-23.96,-25.36,-26.44,-24.84,-21.8,-19.16,-17.12,-17.08,-18.6,-14.92,-15.4,-12.6,-13.44,-14.88,-16.96,-18.52,-14.68,-13.96,-16.8,-19.04,-18.88,-12.08,-1.72,11.84,34.56,61.64,97.88,139.24,178.08,215.48,244.32,267.12,285.32,295.92,283.96,255.52,224,201.88,186.56,168.64,145.72,116.04,91.96,76.56,60.44,42.04,22.04,8.72,-1.24,-13.64,-24.04,-32.36,-35.88,-37.84,-40.64,-46.28,-50.28,-55.76,-53.24,-52.52,-50.36,-53.68,-52.56,-52.16,-46.84,-46.32,-46.92,-47.8,-47.72,-49.36,-47.44,-47,-45.44,-47.8,-47.72,-48.16,-45.28,-45.08,-42.84,-44.2,-45.88,-45.76,-44.84,-43.48,-45.44,-46.56,-50,-49.24,-48.32,-45.56,-44.28,-43.72,-44.04,-42.16,-39.76,-38.56,-38.64,-40.24,-41.36,-43.48,-41.16,-39.36,-38.24,-36.48,-34.16,-29.8,-25.52,-22.4,-18.84,-20.64,-21.84,-18.36,-18.72,-15.96,-14.56,-9.64,-9.56,-3.76,-2.64,0.76,5.04,6.08,7.64,11.8,12.64,16.28,19,21.64,20.44,20.32,23.96,27.4,28.04,25.2,27,29.52,31.8,29.2,29.76,25.96,26.44,26.28,24.76,20.44,20.08,16.96,16.04,15.36,16.76,14.72,10.64,6.76,2.96,2.72,1.88,2.4,-1.64,-6.6,-7.76,-9.72,-6.52,-5,-6.36,-10.48,-12.6,-14.56,-13.4,-17.48,-14.44,-15.16,-20.12,-17.52,-20.28,-21.72,-23.72,-24.2,-25.68,-23.96,-25.16,-22.12,-23.92,-26.92,-26.96,-24.68,-24.72,-26.16,-26.76,-28.08,-29.92,-27.48,-26.16,-22.4,-25.56,-28.24,-30.04,-28.04,-26.32,-27.12,-25.04,-27.32,-27.96,-26.4,-23.32,-18.76,-19.08,-23.6,-26.84,-23.56,-19.92,-16.24,-14.92,-18.16,-19,-13.36,-11.44,-10.52,-8.92,-12.52,-15.16,-12.76,-10.8,-10.4,-10.68,-11,-11.6,-8.52,-4.2,-5.44,-7.48,-6.04,-9,-5.24,-3.52,0.36,3,2.28,3.88,6.24,9.4,10.24,10.64,12.48,14.44,17.68,22.64,27.48,26.36,26.36,27.08,28.36,30.84,33.28,30.6,25.64,24.24,20.96,19.76,15.96,8.16,-0.8,-12.72,-22.92,-27.28,-29.16,-27.64,-25,-23.56,-22.64,-18.28,-18.56,-20.64,-22.2,-25.04,-22.04,-18.08,-21.32,-23.56,-24.28,-22.8,-22.2,-16.8,-15.8,-14.4,-16.6,-16.52,-18.08,-16.96,-16.76,-15.6,-15.76,-15.88,-16.64,-19.24,-18.52,-18.04,-10.88,1.6,27.64,58.48,93.24,131.32,167.72,205.2,237,266.8,287.16,295.6,288.64,266.24,239.6,220.92,203.04,182.04,152.04,120.2,93.4,78.92,69.8,53.76,33.16,13.76,3.56,-5.84,-13.48,-23.32,-31.32,-38.36,-42.56,-43.56,-45.4,-49.8,-51.04,-54.16,-54.04,-53.8,-56.2,-53.8,-49.6,-53.48,-51.64,-47.8,-47.28,-46.2,-48.16,-47.68,-49.24,-48.72,-50.84,-50.64,-51.08,-48.6,-47.36,-46.52,-43.48,-45.64,-46.16,-49,-48.88,-47.2,-46.44,-48.6,-52.2,-52.8,-52.36,-46.92,-43.6,-42.76,-45.76,-48.88,-48.56,-47.6,-45.4,-45.68,-51.8,-53.08,-49.84,-49.64,-48.12,-47.68,-46.28,-44.32,-44.44,-41.72,-40.44,-41.44,-42.08,-42.24,-39.6,-36.12,-31.64,-31.28,-33.6,-33.12,-29.36,-25.28,-22.24,-20.72,-23.64,-21.92,-21.08,-18.84,-17.36,-14.8,-13.88,-13.52,-8.4,-4,-0.12,0.92,-0.32,-0.04,1.32,3.04,-0.28,-1.52,-6.32,-9.92,-10.4,-6.68,-7.04,-6.16,-6.72,-9.2,-8.16,-5.64,-5.04,-9,-14.92,-20.04,-18.84,-19.48,-14.96,-14,-14.24,-16.56,-11.44,-8.08,-7.16,-10.72,-14.24,-13.44,-13.64,-14.28,-14.48,-16.32,-18.84,-16.72,-14,-11.32,-12.24,-9.72,-9.72,-14.28,-12.92,-11.28,-13.2,-16.64,-18.8,-19.72,-20.36,-18.36,-14.64,-13.84,-11.6,-10.92,-12.04,-7.64,-10.36,-9.72,-12.56,-18.88,-20.08,-17.88,-16.68,-15.72,-17.04,-14.2,-12.8,-7.68,-7.96,-7.4,-7.76,-7.6,-4.08,-3.04,-3,-3.48,-5.52,-7.28,-3.04,-1.28,-0.28,3.04,1.96,1.68,3.04,4.72,4.16,2.4,2.12,0,2.96,8.24,13.92,18.16,22.8,19.64,18.16,18.6,22.8,22.4,25.88,26.08,28.76,35.44,39.48,41.84,39.48,40.96,39.68,41.32,39,35.64,34.92,29.72,26.08,18.28,10.88,1.68,-8.24,-14.76,-14.12,-12.64,-11.96,-12.32,-12.44,-14.84,-12.44,-10.8,-11.36,-12.24,-12.52,-12.68,-11.72,-8.24,-7.64,-4.96,-7.24,-8.52,-7.8,-5.4,-2.96,-2.2,-2.64,-7.44,-8.04,-6.28,-10.16,-11.64,-12.96,-13.32,-1.68,18,43.76,74.32,104.96,137.6,172.24,209.36,239.96,264.96,279.28,279,267.52,243.92,218.6,198.6,179.6,158.32,127.84,99.56,83.24,72.6,58.52,40.76,25.04,17.72,7.32,-1.12,-14.36,-26.24,-31.28,-35.56,-38.04,-41.32,-45.68,-49.48,-49.72,-47.8,-46.76,-50.08,-50.72,-48.24,-45.76,-43.76,-43.68,-42.88,-43.48,-46.08,-47.84,-47,-47.16,-46.36,-47.04,-49.4,-46.32,-45.04,-43.28,-43.2,-44.92,-47.08,-45.84,-45.2,-48.52,-49.2,-52.84,-52.72,-50.52,-46,-45.84,-43.48,-46.88,-49.72,-48.44,-47.96,-47.64,-46.92,-48.2,-49.88,-48.6,-51.52,-48.32,-49.76,-48.52,-49.2,-46.72,-45.64,-40.32,-38.52,-38.24,-38.48,-35.92,-32.68,-31.36,-34.08,-32.68,-31.12,-28.52,-24.96,-18.68,-18.72,-17.8,-19.32,-19.64,-16.36,-17,-12.68,-14.04,-13.72,-8.64,-3.12,0.56,4,4.28,6.6,8.52,7.72,5.76,5.68,2.72,-1.12,-0.84,2,1.68,1.96,1.16,-1.92,-0.32,0.92,-1.04,-2.68,-5.36,-10.4,-9.28,-9.12,-7.56,-8.32,-9.56,-10.2,-10.16,-7.4,-6,-4.72,-6.76,-8.44,-13.28,-13.6,-15.56,-12.68,-14.24,-16.36,-16.08,-15.04,-12.96,-12.16,-10.6,-11.16,-10.32,-9.2,-11,-14.2,-15.24,-18.24,-15.8,-13.92,-13.48,-12.2,-12.04,-10.2,-7.96,-4.52,-5.72,-7.48,-12.08,-11.32,-14.56,-13.6,-14.96,-15.92,-15.6,-18.56,-16.64,-10.08,-7.44,-9.04,-10.2,-10.68,-9.4,-8.6,-6.72,-8.24,-11.32,-11.28,-7.6,-4.84,-2.44,-3.68,-4,-5.56,-5.68,-5.16,-5.04,-4.36,-6.2,-2.2,-1.04,5.12,11.16,15.8,19.8,20.24,23.28,23.24,21.04,21.48,23.6,26.12,29.96,34.92,36.16,40.6,38.92,41.44,46.44,46.8,41.84,42.96,38.88,34.52,33.56,26.96,15.68,4.68,-6.04,-13.44,-12.08,-6.68,-7.64,-9.36,-9.24,-9,-9.04,-4.52,-6.56,-8.2,-11.64,-13.64,-11.4,-8.8,-8.28,-6.8,-6.72,-7.56,-5.64,-3.44,-5.32,-8.48,-11.44,-13,-12.56,-15.76,-15.52,-15.96,-18.24,-16.76,-3.6,15.32,43.36,75.56,110,143,180,214.28,245.8,269.88,288.36,287.76,269.48,244.04,220.4,198.44,172.76,142,116.44,98.44,89.52,73.88,55.56,33.76,19.28,5.64,-4.44,-16.64,-24.12,-32.92,-37.68,-38.52,-42.04,-45.16,-49.24,-52,-51.6,-50.6,-53,-54.48,-50.56,-49.04,-47.72,-43.96,-41.84,-40.64,-40.4,-42.6,-40.84,-40.72,-43.2,-43,-45.16,-43.76,-39.68,-37.24,-37.6,-38.44,-42.76,-46.24,-43,-40.32,-40.64,-43.4,-42.8,-45.28,-43.48,-42.28,-43.24,-45,-46.36,-46.08,-41.44,-41.92,-39.72,-40,-44.32,-44.08,-40.48,-43.08,-46.24,-47.04,-46.04,-40.96,-36.32,-31.08,-30.24,-33.6,-33.36,-35.04,-28.96,-24.84,-20.84,-21.84,-22.72,-23.32,-17.88,-12.28,-11.72,-16.8,-18.4,-12.84,-6.68,-2.52,-5.32,-7.12,-6.84,-4.76,1.08,4.92,6.16,1.76,1.2,-0.32,2.56,4.52,2.88,1.36,-2.16,-2.64,-0.32,-2.04,-3.28,-8.2,-12.68,-12.76,-13.24,-9.88,-7,-7.04,-8.72,-12.2,-11.64,-12.08,-11.52,-10,-10.16,-12.84,-13.52,-12.6,-10.04,-7.68,-7.88,-8.88,-10.76,-9.32,-6.6,-6.24,-7.04,-7,-9.76,-9.92,-10.64,-7.48,-7.88,-3.56,-1.84,-1.8,-3.68,-9.96,-12.24,-14.76,-14.72,-10.8,-9.6,-11.68,-12.36,-13.12,-13.68,-9.64,-9.96,-6.88,-8.8,-10.12,-9.56,-7.32,-8.28,-11.44,-16.28,-15.52,-13.64,-13.6,-14.76,-14.12,-12.2,-8.84,-4.6,-2.88,-2.92,-0.36,-4.16,-0.28,-1.52,-0.72,-1.68,-3.8,-5,-7.16,-4.2,1.96,4.24,8.24,12.04,15.32,18.88,21,19.2,16.32,13.96,18.4,20.76,26.2,31.16,33.44,38.6,40.56,43.12,41.32,38.96,35.2,30.36,30.32,23.04,21.28,11.52,2.08,-9.68,-14.16,-14.96,-12.2,-13.56,-16.28,-20.64,-24.32,-25.16,-24.4,-24.76,-21.44,-21.08,-25.36,-22.28,-21.04,-17.8,-15.92,-16.08,-18.76,-20,-18.8,-17.72,-18,-18.4,-16.12,-17.8,-17.04,-18.8,-16.56,-17.24,-7.32,4.52,33.96,70.8,107.84,148.68,190.48,228,259.4,286.88,299.88,289.32,265.52,241.64,220.36,194.44,168.44,137.68,108.72,85.52,71.2,52.92,28.52,8.04,-8.32,-19.04,-28.92,-32.76,-38.96,-43.76,-49.48,-52.16,-53.2,-51.28,-53.56,-55.92,-61.6,-60.4,-58.12,-52.92,-50.8,-50.64,-49.64,-47.52,-44.2,-45.68,-46.64,-48.52,-52.64,-50.84,-50.32,-46.88,-47.4,-48,-45.8,-43.84,-45.08,-47.92,-47.6,-49.08,-47.88,-44.88,-43.24,-42.52,-44.92,-47.16,-48.56,-44.36,-43.52,-42.68,-43.76,-43.36,-46,-44.68,-43.52,-41.6,-43.84,-46.2,-48.32,-44.52,-38.68,-33.6,-31.24,-32.24,-34.8,-32.76,-27.88,-27.76,-29.84,-31.24,-31.8,-26.28,-22.2,-19.48,-14.64,-14.32,-11.84,-6.16,0.96,5.24,8.64,11.84,9.2,10.2,5.32,5.52,7.08,9.2,8.52,10.24,12.08,11.16,11.56,9.04,2.84,1,-2.36,-5.36,-5.2,-8.12,-11.72,-8.76,-6.64,-7.76,-8.64,-8.56,-9.96,-5.32,-3.48,-4,-6.32,-10.32,-11.2,-12.28,-7.64,-3.6,-1.16,-2.12,-4.04,-3.84,-0.24,2.44,3.12,1.52,-0.88,-6.16,-3.08,-0.52,-1.88,-6.2,-9.96,-7.44,-1.68,1.44,2.08,0,-1.4,-3.2,-4,-3.32,-4.08,-7.36,-9.56,-10.76,-10.8,-7.24,-5.52,-4.16,-4.44,-5.64,-6.36,-4.24,-4,-4.36,-10.04,-10.36,-9.52,-9.72,-9.8,-11.48,-11.96,-5.88,-0.76,3.48,-2.04,-4.52,-3.92,-3.6,-0.8,-0.52,1.64,2.68,8.2,12.04,19.44,23.64,25.8,22,15.56,14.96,18.32,19.84,22.12,23.72,25.92,33.04,40.88,46.32,47.32,44.4,37.28,37.04,37.28,35.6,31.04,23.72,13.88,3.24,-2.88,-9.6,-10.52,-11.92,-14.8,-12.8,-10.92,-10.16,-8.76,-7.28,-10.88,-9.28,-7.36,-7.96,-10.08,-15.44,-15.36,-9.88,-2.84,-2.76,-5.8,-7.96,-6.52,-1.16,-0.76,-1.92,-5.88,-6.28,-11.48,-12.92,-13.88,-8.36,2.72,20.88,50.68,83.44,119.8,151.16,185.72,219.84,249.84,275.44,293,294.52,274.84,244.6,218.8,198.88,179.52,150.28,116.92,90.32,75.8,60.88,43.8,27.48,14.12,2.68,-7.68,-15.96,-23.84,-31.6,-38.96,-44.24,-50.6,-53.28,-58,-60.12,-61.36,-59.56,-57.84,-54.16,-49.48,-49.68,-51.52,-50.28,-52.48,-52.76,-49.08,-52.36,-51.76,-53.72,-55.88,-54.16,-55.56,-53.8,-54.04,-52.36,-50.28,-49.16,-48.56,-46.64,-43,-42.2,-44.56,-42.64,-41.76,-40.12,-41.48,-40.6,-42.72,-41.16,-39.36,-39.32,-38.68,-45.48,-44.68,-42.72,-37.32,-37.76,-41.08,-46.08,-47.48,-50.12,-46.8,-45.68,-46.48,-52,-54.56,-52.28,-45.84,-43.08,-42.16,-39.28,-40.6,-39.88,-38.4,-38.96,-35.88,-32.2,-27.52,-23.44,-25.52,-24.72,-23.8,-19.48,-15.12,-14.92,-9.24,-11.4,-12.6,-15.04,-15.84,-15.28,-13.84,-17.48,-16.4,-16.4,-18.56,-19.4,-16.12,-17.96,-18.2,-19.44,-19.56,-16.08,-13.8,-15.04,-17.4,-19.96,-20.76,-15.08,-12.52,-11.4,-12.96,-13.72,-11.84,-8.2,-5.2,-6.4,-7.84,-6.92,-10.16,-9.8,-11,-9.32,-9.68,-13.52,-12.16,-11.16,-8.64,-8.32,-7.6,-11.92,-10.52,-8.72,-7.24,-8.92,-13.88,-19.16,-19.56,-16.4,-14.2,-16.24,-16.72,-21.28,-21.64,-21.4,-20.28,-17.44,-19.64,-22.4,-21.52,-20,-20.52,-17.24,-19.04,-23.2,-23.92,-26.6,-23.16,-18.08,-18.16,-19.16,-20.92,-20,-17.92,-14.2,-13.32,-9.76,-6.08,-2.88,1.6,7.16,10.4,12.6,8.76,7.44,8.4,8.56,14.96,19.48,23.12,30.64,35.72,44.36,45.2,43.24,43.08,41.68,38.36,34.64,31.28,28.12,23.24,19.6,11.92,2.4,-6.72,-11,-11.08,-10.96,-11.08,-10.48,-11.6,-13.32,-16.72,-15.88,-14.04,-15.52,-13.24,-13.84,-14.84,-13.16,-13.36,-11.16,-7.24,-6.68,-8.76,-10.48,-9.84,-10.08,-9.12,-14.48,-18.12,-21.64,-15.88,-9.12,0.8,21.32,46.2,79.68,113.36,148.6,190.36,230.24,259.24,278.56,285.96,266.48,230.56,201.36,177.2,157.48,133.28,104.68,84.4,70.8,56.6,40.2,26.16,10.52,-1.76,-11.2,-19,-24.12,-28.52,-30.28,-37.6,-41.4,-45.68,-47.32,-45.44,-48.56,-49.48,-52.08,-56.48,-54.08,-49.92,-47.04,-46.2,-43.96,-45.36,-44.44,-42.92,-46.56,-46.44,-45.6,-47.4,-43.92,-43.44,-40.96,-38.48,-36.36,-36.04,-30.4,-31.48,-33.4,-33.72,-34.4,-38.32,-40.52,-38.4,-38.72,-40.08,-40.52,-40.12,-39.08,-38.76,-39.96,-38.96,-43.88,-42.36,-43.08,-41.24,-39.32,-44.24,-44.44,-41.76,-38.44,-35.28,-30.16,-26.8,-28.8,-28.64,-24.72,-19.16,-16.88,-20.04,-19.6,-20.44,-18.88,-15.56,-12.6,-10.96,-8.56,-6.52,-3.88,-4.6,-4.36,-1.88,-1.84,-2.76,-2.48,-3.68,-1.4,-0.32,0.88,0.64,1.76,2.36,-2.56,-4.32,-7.08,-8.88,-7.48,-2.12,-3.36,-6.04,-5.32,-8.12,-6.68,-3.84,-3.52,-3.64,-6.2,-8.76,-6.48,-6.56,-6.16,-6.8,-6.88,-7.28,-8.44,-7.24,-6.64,-3.64,-5.92,-7.88,-7.52,-6.2,-4.04,-6.28,-7.92,-9.52,-8.76,-4.36,-8.64,-4.72,-4.52,-4.88,-4.52,-2.48,-1.96,-3.8,-2.48,-5.76,-5.6,-5.36,-2.36,-4.68,-6.08,-5,-4.96,0.44,1.68,0.8,-4.44,-4.04,-2.84,-1.32,-0.16,-1.92,-4.8,-5.04,-4.76,-5.96,-4.16,-4.84,-4.48,-3.92,-0.48,2.76,3.28,6.12,4.72,5.64,10.4,11.16,13.12,11.16,12,8.8,8.8,13.16,15.72,20.96,24.28,26.32,31.24,35.48,34.56,30.76,30.2,32.72,39.08,42.44,41.24,40.48,38.96,40.2,43.36,46.2,47.24,44.6,43.76,43,40.36,39.64,35.16,28.6,19.6,7,-3.32,-11.28,-13,-16.04,-16.04,-15.56,-15.36,-13.2,-12.8,-15.4,-17.76,-19.28,-19.24,-17.8,-16.92,-15.88,-18.64,-17.64,-15.56,-11.2,-12.04,-10.84,-12.28,-14.96,-14.48,-9,-11.04,-9.6,-12.64,-15.52,-17.44,-18.44,-16.4,-12.88,-0.52,18.52,43.96,76.32,111.84,150.36,190.6,223.24,254.08,276.24,292.36,294.64,278.88,247.32,225.76,211.72,195.24,174.72,145.48,114.08,91.36,77.08,65.04,45.24,24.52,5.84,-4,-11.56,-21.2,-32.16,-40.48,-44.96,-50.28,-51.84,-55.56,-58.76,-61.84,-63.68,-63.4,-60.36,-60.24,-56.56,-58.24,-58.32,-56.76,-54.44,-52.92,-54.56,-57.36,-60.56,-59.76,-56.68,-55.36,-54.52,-55.36,-56.96,-53.76,-53.08,-53.6,-55.08,-56.6,-59.24,-56.28,-56.56,-59.64,-55.36,-58.8,-58.96,-53.88,-50.4,-52.84,-56.56,-54.92,-56.92,-55.36,-53.08,-49.96,-52.16,-55.12,-56.92,-53.36,-50.76,-50.64,-47.16,-47.32,-47.2,-44.64,-41.72,-41.24,-35.84,-33.6,-34.84,-30.96,-26.92,-26.36,-25.72,-24.56,-22.12,-20.44,-15.28,-12.84,-11.84,-9.2,-9.92,-6.64,-0.92,1.88,2.76,3.68,2.32,5.96,9.68,11.88,11.48,7.64,6.52,6.16,5.72,3.84,3.04,5,-0.8,0.36,0.88,-2.12,-1,-3.64,-5.32,-6.68,-6.2,-9.6,-10.08,-13.32,-15.6,-16.4,-10.8,-11.2,-12.28,-13.08,-14,-11.64,-11.32,-9.72,-13.16,-15.68,-17.36,-17.92,-18.8,-17,-16.76,-16.2,-17.32,-18.2,-17.24,-16,-14.52,-19.96,-20.48,-19.16,-21.88,-20.36,-20.16,-22.12,-21.88,-21.44,-19.64,-17.56,-17.4,-18.08,-18.6,-17.12,-16.8,-16.52,-17.04,-20.44,-22.08,-20.12,-20.08,-15.8,-17.04,-17.72,-16.52,-14.8,-11.6,-11.12,-9.52,-11.8,-11.8,-8.6,-6.12,-2.88,-2,-3.08,-1.28,1.28,-0.08,3.64,1.28,-0.8,-0.92,0.44,2,3.16,2.88,1.64,1.6,-0.44,3.4,5.44,3.6,3.8,4,6.4,8.04,11.08,13.64,15.72,16.4,18.96,18.84,20.84,24.88,23.88,29.28,32.4,37.56,37.04,33.08,32.2,32.84,35.84,36.24,36,33.04,30.16,27.28,27.2,22.44,14.64,3.76,-5.56,-13.44,-17.32,-17.84,-21.76,-21.4,-21.6,-20.32,-18.4,-16.28,-17.24,-18,-21.8,-20.68,-21,-18,-17.8,-17.2,-18.96,-18.68,-18.04,-12.84,-10.76,-10.4,-10.28,-11.92,-10.96,-12.84,-10.08,-12.96,-16.64,-15.84,-16.6,-15.36,-8.72,-1.2,14.96,41.4,76.52,117.84,157.88,196.12,229,255.24,280.64,295.4,300.72,294.08,270.08,243.6,216.72,196.2,166.52,134,103.08,80.44,67.16,55.4,37.76,17.6,1.96,-10.6,-15.76,-23.56,-30.44,-37.92,-42.76,-46.2,-48.32,-50.24,-52.68,-54.48,-56.24,-57.4,-57.32,-53.96,-52.28,-49.84,-50,-52.6,-51.6,-50.24,-48.44,-51.4,-50.84,-50.64,-49.68,-50,-50.88,-50.32,-53.52,-51,-50.2,-48,-45.88,-48.24,-52,-51.44,-51.84,-49.56,-48.44,-47.84,-50.6,-51.92,-51.4,-47.92,-45.08,-45.84,-50.6,-49.96,-48.96,-48.36,-48.68,-47.4,-48.24,-47.72,-46.68,-41.04,-40.52,-38.16,-37.2,-36.96,-34.72,-29.24,-27.28,-27.64,-30.92,-32.44,-28.4,-24,-20.04,-14.64,-13.44,-10.16,-7.48,-4.52,-3.64,-2.64,-1.96,-3.52,-0.84,0.96,2.56,1,0.36,-0.24,3.88,5,4.24,1.2,1.24,-3.48,-4.88,-4.88,-6.6,-13,-13.4,-16.16,-15.28,-9.64,-11.2,-10.76,-12.16,-13.88,-13.84,-13.28,-13.44,-12.12,-18.68,-21.16,-22.6,-20.32,-17.4,-14.8,-16.52,-17.2,-15.76,-16.64,-15.64,-14.2,-18.6,-23.6,-23.6,-22.48,-23.04,-22.76,-21.88,-20.16,-17.08,-15.88,-16.4,-20.08,-23.04,-24.56,-21.08,-22.24,-23.16,-22.88,-25.32,-24,-20.28,-18.48,-12.4,-15.16,-16.56,-18.04,-18.04,-16.68,-19.2,-18.44,-20.16,-21.92,-21.52,-20.2,-17.64,-12.72,-16.36,-13.92,-10.76,-11.24,-10.96,-10,-7.88,-9.64,-8.24,-7.04,-4.72,-4.8,-6.04,-7.48,-1.28,-0.28,-0.32,-0.72,-0.6,-3,-2.44,2.76,5.52,8.12,7.76,7.92,12.04,12.04,14.96,12.6,17.36,18.84,20.68,23.12,25.64,26.8,28.72,26.28,30.92,34.08,33.28,28.36,27.48,24.12,23.8,27.24,22.2,14.72,3.36,-8.64,-14.64,-16.08,-18.4,-18.04,-18.72,-20.64,-15.88,-16.28,-18.56,-18,-19.96,-21.36,-17.88,-19.96,-19.88,-18.24,-18.36,-15.88,-13.76,-13.8,-12.2,-10.44,-10.56,-11.92,-14.08,-10.56,-10,-9,-9.8,-13.12,-13.28,-10.96,-6.76,1.44,11.08,36.92,65.8,99.56,135.32,171.12,205.84,232.88,256.8,274.36,287.32,288.88,280.48,255.96,230.48,208.32,191.28,171.32,144.16,111.2,87.84,73.8,61.8,44.56,23.8,7.28,-3.28,-8.08,-14.32,-23.52,-31.52,-34.44,-35.72,-36.92,-40.44,-43.6,-47.68,-49.36,-48.24,-48,-45.6,-43.08,-40.48,-41.72,-41.96,-40.04,-39.48,-40.88,-43.36,-46.44,-44.88,-42.84,-42.6,-42.2,-44.56,-45.88,-42.52,-39.84,-39.92,-41.72,-43.6,-44.56,-45.88,-40.96,-43.4,-44.2,-45.92,-45.36,-42.76,-43.2,-43.8,-41.08,-43.12,-47.08,-46.16,-44.24,-43.44,-43.48,-45.84,-47.72,-46.52,-45.04,-41.28,-41.76,-43.12,-42.6,-41.84,-39.92,-36.96,-34.92,-36.08,-34.92,-30.28,-28.32,-25.48,-25.56,-25.6,-23.08,-21.2,-15,-14.6,-13.16,-15.28,-14.04,-6.92,-4.48,-2,1.64,2.8,2.96,3.76,6,6.16,5.6,1.88,-3.12,-1.68,-0.88,-2.04,-2.76,-8.56,-8.4,-7.88,-7.44,-8.2,-5.72,-10.36,-9.76,-9.2,-11.04,-13.52,-13.64,-14.6,-13.28,-13.96,-12.92,-10.28,-13.8,-16.48,-15.28,-11.12,-9.72,-11.2,-11.88,-12.48,-16.76,-17.16,-15.4,-17.28,-16.32,-17.76,-18.32,-15.04,-12.96,-9.68,-12.24,-14.64,-17.32,-18,-15.4,-16.68,-18.88,-21.76,-20.68,-18.28,-11.76,-11.48,-11.32,-12.92,-14.32,-14.76,-17.56,-14.32,-15.68,-17.84,-19.84,-15.88,-14,-10.8,-10.08,-14.68,-15.24,-11.64,-8.2,-6.52,-8,-7.36,-9.36,-4.24,-2.24,0.52,-0.92,-3.16,-0.64,3.2,8.52,4,4.44,2.32,-1,1.4,2.88,6.08,9.56,10.92,15.8,19.56,23.32,24.68,20.84,20.12,19.36,22.88,25.44,28.72,34.2,33.48,33.04,36.28,41.08,37.96,36.76,33.32,30.56,31.96,31.04,27.64,20.28,6.72,-2.76,-10.56,-15.2,-13.8,-15.8,-15.8,-18.96,-17.64,-14.56,-14.96,-16.8,-19.04,-18.4,-17.08,-15.64,-14.48,-15.76,-17.48,-14.4,-13.52,-9.76,-10.32,-9.16,-11.56,-11.2,-8.48,-7.08,-8.8,-10.2,-12.92,-16.16,-17,-14.08,-3.2,12.64,35.24,63.44,100.88,134.2,169.96,205.4,230.84,250.64,269.84,285.56,290.88,274.96,245.12,214,191.48,170.68,143.24,112.84,90.8,76.32,61.52,45.36,28.92,13.88,-0.44,-10.16,-18.08,-24.36,-30.96,-37.6,-40.96,-47.4,-49.52,-52.36,-53.36,-52.52,-54.12,-53.12,-53.76,-52.56,-49.52,-46.92,-49.76,-48.48,-46.16,-44.72,-43.84,-44.84,-47.96,-51.24,-50.92,-47.84,-48.44,-47,-45.72,-44.24,-44.28,-43.8,-43.08,-44.16,-47.8,-47.48,-48.52,-47.04,-45.72,-47.4,-47.04,-47.52,-42.36,-42.08,-40.08,-42.52,-44.76,-46.88,-45.68,-44.44,-45.52,-42.84,-44.56,-47.28,-44.2,-41.76,-35.56,-38,-37.04,-36.56,-32.92,-28.12,-26.92,-26.6,-26.52,-24.96,-22.32,-20.16,-17.08,-16.88,-17.96,-13.08,-10,-9.04,-8.24,-5.92,-3.04,-2.56,1.28,6.68,7.52,7.84,6.12,6.64,11.64,13.32,13.04,10.76,8.08,4.2,5.48,5.24,7.6,7.56,3.8,0.56,-0.08,1.68,0.84,-0.24,-4.36,-5.72,-7.48,-4.36,-5.92,-5.96,-8.52,-9.28,-8.16,-4.36,-5.84,-6.92,-8.92,-10.2,-8.52,-7.96,-10.68,-9.52,-13.2,-15.32,-14.52,-12.6,-11.92,-14.28,-12.64,-13.8,-11.84,-10.36,-12.72,-16.96,-18.64,-20.32,-21.16,-19.4,-17.48,-18.6,-19.76,-19.12,-17.48,-13.56,-11.76,-13.2,-15.6,-18.68,-17.44,-15.16,-14.88,-14.08,-15.28,-17.52,-15.96,-12.4,-10.76,-10.8,-13.68,-14.56,-12.16,-9.28,-8.68,-6.04,-7.36,-5.2,0.44,2.76,3,2.08,-3.04,-3.76,-2.08,-0.48,-0.2,-3.16,-5.6,-4.08,-4.36,1.12,8.08,9.88,13.52,13.12,15.44,17.16,16.52,16.88,18.92,21.92,24.36,28.64,30.48,33.92,34.96,38.88,40.4,40.96,39.24,34,28.6,25.2,24.12,19,12.72,3.04,-8.92,-16.44,-18.56,-15.8,-15.32,-17.48,-18.16,-19.36,-19.76,-18.28,-19.44,-20.36,-18.56,-19.16,-16.24,-15.84,-15.04,-16.16,-15.56,-14.68,-10.28,-7.68,-7.96,-11.52,-13.6,-12.52,-11.88,-10.6,-9.76,-13.12,-13.24,-10.24,4.28,31.88,61.44,94.08,128.08,167.36,206.28,242.2,266,281.6,291.6,286.28,267.16,244.16,218.8,192.52,165.36,130,98.84,78.28,63.4,49.32,32.36,14.08,3.28,-6.04,-16,-26.84,-33.2,-39.44,-39.72,-41.32,-42.4,-47.04,-51.96,-54.16,-52.28,-51.8,-50.48,-51.8,-49.64,-49.68,-47.52,-48.12,-48.44,-48.2,-48.44,-47.16,-48.32,-49.52,-48.72,-48.96,-47.6,-51.76,-48.76,-48.96,-45.56,-44.56,-45.48,-46,-46.24,-46.04,-46.08,-48.08,-49.32,-53.48,-50.4,-45.72,-46.72,-42.84,-45.4,-45.48,-46.4,-46.12,-42.36,-43.08,-45.16,-48.36,-48.64,-46.08,-45.08,-43.28,-41.2,-38.24,-33.96,-34.12,-33.96,-32.72,-31.24,-33,-34.44,-32.36,-30.2,-31.28,-30.72,-29.12,-25.12,-18.8,-16.52,-11.88,-10.4,-8.92,-3.64,0.2,2.96,2.4,0.76,-1.52,0.52,3.88,6.76,4.76,3.48,2.44,3.92,8.44,7.96,5.04,1.96,-4.48,-5.16,-5.36,-10.36,-10.8,-12.68,-13.56,-11.8,-7.88,-5.28,-4.84,-8.28,-14.04,-16.08,-12.32,-16.84,-15.88,-19.8,-20.08,-18.04,-15.8,-14,-15.92,-15.44,-15.16,-14.92,-12.76,-12.68,-18.28,-20,-23.32,-24.8,-21.44,-19.44,-19.12,-20.28,-21.32,-20.92,-16.8,-15.48,-16.12,-17.96,-21.6,-20.32,-19.76,-17.24,-20.92,-22.76,-21.56,-20.72,-14.96,-13.44,-12.28,-14.04,-14.84,-15.8,-12.56,-13.36,-16.76,-20.32,-20.2,-19.28,-16.16,-14.92,-12.12,-11.56,-9.12,-4.72,-3.04,-3.52,-0.84,-4.68,-4.24,-6.52,-5.76,-6.56,-5.36,-5,-4.16,-0.64,5.32,7.52,10.4,11.6,12.76,14.28,15.96,13.32,12.68,10.56,14.4,21.44,28,30.52,35.48,37.6,37.4,39.56,38.52,39.04,34.88,31.36,26.6,26.56,28.36,22.4,12,2.6,-5.48,-8.4,-8.56,-9.36,-13.36,-14.76,-15.88,-13.4,-12.28,-12.36,-13.6,-14.28,-13.72,-10.16,-7.36,-6.36,-7.24,-7.92,-7.04,-7.6,-2.88,-2.36,-4.08,-5.16,-9.12,-7.04,-3.52,-2.04,1.8,10,34.12,66.36,106,146.52,189.4,225.04,255.36,280.32,293.4,294.6,278.92,249.44,217.4,193.56,176.64,148.96,116.88,86.48,67.52,52.16,33.56,15.64,-0.16,-11.84,-20.6,-24.16,-26.44,-30.16,-33.84,-36.28,-42.2,-43.84,-45.12,-45.48,-46.12,-45.84,-47.76,-45.68,-44.72,-43.36,-39.56,-40.2,-42.84,-40.28,-42.4,-43.96,-44.08,-45.28,-46.76,-44.16,-43.88,-43.48,-46.28,-42.8,-43.92,-40.84,-41.72,-44.32,-40.08,-41.76,-44.76,-44.2,-43.8,-45.28,-44.92,-45.32,-44.2,-40.84,-38.08,-40.12,-42.76,-44.32,-44.28,-43,-41.24,-39.68,-39.16,-42.56,-41.16,-40.56,-34.72,-31.6,-30.36,-29.2,-29,-27.92,-25.6,-24.84,-26.52,-26.04,-26.6,-22,-18,-13.16,-10,-3.6,-2.52,2.48,5.56,8.92,8.68,7.28,0.2,1.28,3.52,1.8,1.48,-1.04,-1.44,0.12,2.4,1.6,1.96,-3.52,-4.48,-7.16,-8.28,-12.32,-12.92,-15.6,-17.8,-15.48,-13,-10.36,-10.76,-9.48,-10.88,-13.44,-10.44,-10.12,-15.24,-19.28,-18.76,-19.52,-18.56,-14.92,-14.28,-13.64,-10.76,-9.4,-7.92,-8.28,-10.32,-12.96,-16.16,-17.28,-20,-16.76,-15.76,-18.36,-15.12,-12.92,-9.4,-7.2,-12.68,-14,-13.24,-12,-14.36,-14.36,-15.04,-16.68,-19.8,-15.52,-13.4,-10.32,-9.76,-10.64,-10.2,-8.64,-6.12,-9.96,-13.16,-17.08,-17.84,-17.68,-16.16,-13.92,-7.84,-6.92,-7.32,-4.04,-1.72,-0.96,-2.76,-0.92,-4.28,-2.84,-2.4,-0.32,3.8,4.24,10.72,13.4,19.64,21.04,20.68,19.48,15.56,19.28,25.16,27.04,30.92,28.28,28.88,33.84,38.88,41.36,42.64,38.96,36.56,35.16,33.88,30.52,26.52,17.44,12.48,1.68,-4.88,-10.76,-13.68,-15.12,-17.64,-15.52,-14,-10.28,-15.64,-18,-20,-18.08,-16.12,-12.76,-13.28,-16.12,-17.2,-14.68,-12.28,-10.08,-12.52,-11.84,-12,-13.48,-10.68,-11.68,-11.72,-12.24,-13.72,-14.6,-9.8,-4.24,12.36,32.56,62.08,95.64,135.4,173.96,210.84,240.96,264,286.36,296.84,292,263.96,232.6,212.32,188.44,167,135.68,103.76,81.44,63.32,45.48,25.52,9.08,-5.28,-19.88,-29.88,-35.24,-39.84,-42.76,-48.2,-52.36,-57.12,-55.48,-54.8,-53.64,-56.64,-58.24,-59.72,-54.6,-51.84,-51.32,-53.84,-54.88,-57.36,-53.76,-51.48,-50.84,-49.08,-50.84,-53.76,-53.24,-52.6,-52.04,-49.8,-48.04,-50.52,-51.52,-48.08,-50.48,-49.96,-51.2,-53.6,-54.64,-52.48,-51.96,-50.28,-48.6,-49.4,-48.8,-48.36,-48.4,-48.84,-50.24,-48.8,-48.2,-45.88,-45.8,-44.68,-47.04,-44.32,-40.92,-37.64,-31.96,-30.48,-28.48,-27.12,-24.96,-18.28,-18.64,-19.76,-22.08,-22.6,-19.68,-15.64,-12.24,-8.8,-4.44,-1.64,2.16,5.52,8.68,7.32,4.52,0.36,2.16,2.72,4.4,2,-0.84,-1.4,-0.48,1.76,0.04,2,-0.32,-3.36,-7.04,-8.24,-9.24,-13.64,-13.76,-16.92,-15.84,-13.12,-12.16,-14.72,-16.4,-17.4,-13.92,-10.12,-10.52,-15.44,-16.2,-20.56,-16.8,-15.16,-15.88,-14.88,-15.8,-16.32,-12.32,-11.48,-11.08,-10.28,-12.56,-13.56,-14.68,-14.28,-16.92,-18.52,-18.44,-16.6,-12.64,-11.32,-10.4,-10.4,-10.68,-11.16,-10.44,-9.48,-10.64,-10.16,-15.56,-17.12,-16.28,-11.64,-9.64,-11.12,-13.08,-13.2,-10.56,-8.16,-8.48,-9.48,-10.64,-12.28,-13.88,-12.6,-13,-10.28,-9.12,-9.08,-4.32,-1.48,0.32,-1.64,-1.44,-1.08,0.76,1.96,2.08,1.64,0,0.56,4.36,13.44,19.16,24.24,24.84,21.64,21.96,20.64,22.88,26.4,27.96,28.96,31.76,34.84,36.4,36.36,38.2,41.08,42.52,41.08,39.68,37.44,32.8,30.28,23.84,16.6,6.72,-5.08,-11.52,-13.68,-13.88,-12.12,-13.56,-15.8,-17.04,-17.24,-12.84,-14.56,-16,-18.32,-19.2,-19.8,-18.2,-14.48,-12.72,-12.8,-12.28,-11.48,-8.8,-4.12,-6.68,-8.4,-8.76,-11.04,-7.84,-8.52,-10.96,-9.2,-8.44,-7.48,2.88,23.68,50.44,85.28,121.92,162.16,202.6,239.32,267.56,288.96,297.8,289.68,268.56,245.48,222.92,203.12,187.04,160.96,130.48,102.72,83.24,69.32,51.64,31.24,16.2,4.16,-4.92,-16.84,-29.32,-39.2,-40.4,-43.88,-47.36,-49.24,-53.6,-57.48,-56.48,-58,-57.24,-55.4,-54.68,-54.52,-50.32,-49.44,-51.84,-53.32,-56.8,-54.8,-55.08,-50.96,-51.88,-54.24,-55.44,-54.64,-49.68,-46.32,-44.52,-44.2,-49.4,-51.88,-51.56,-51.92,-53,-54.76,-56.68,-55.92,-55.36,-53.72,-48.52,-49.12,-52.32,-49,-50.28,-51.84,-48.48,-49.88,-53,-55.68,-53.84,-50.08,-49.48,-51.88,-51.52,-49.16,-45.44,-41.2,-40.4,-38.8,-39.84,-39.08,-36.64,-36.72,-34.36,-33.12,-33.88,-31.8,-29.72,-23.24,-17.72,-17.04,-14.16,-10.4,-4.6,-4.4,-1.28,0.84,0.52,1.04,1.92,4.36,7.24,6.4,6.84,7.72,10,10.08,8.2,3.72,0,-1.72,-4.04,-2.44,-3.4,-5.56,-10.36,-8.96,-7.64,-4.96,-7.72,-7.64,-8.44,-11.76,-14.44,-11.08,-15.16,-15.48,-16.36,-16.6,-15.36,-12.96,-10.6,-11.96,-12.72,-10.56,-12.76,-12.16,-13.16,-11.88,-13.16,-16.96,-18.12,-18.56,-17.36,-15.84,-15.6,-15,-11.96,-9.8,-10.68,-10.08,-13,-13.8,-16.16,-16.04,-16.12,-17.44,-16.12,-15.64,-11.52,-9.04,-7.84,-7.6,-11.48,-10.88,-9.88,-8.8,-8.24,-8.28,-11.44,-13.68,-13.48,-9.12,-6.76,-7.48,-7.28,-5.76,-1.32,-0.24,2.36,-1.08,0.48,-0.84,-0.84,-1.56,0.76,0.16,1.6,3.04,6.48,14.84,18.16,21.2,20.16,17.2,21.08,21.8,25.24,28.16,30.16,29.12,34.12,37.16,41.48,42.8,43.08,41.2,39.04,35.96,33.96,30.68,28.2,24.24,15.28,8.04,-3.72,-10.6,-13.36,-16.04,-10.96,-6.72,-7.88,-8.76,-10.64,-15.12,-12.6,-11.56,-14.36,-15.56,-15.12,-13.88,-11.88,-8.76,-9.72,-8.44,-9.56,-12.52,-7.52,-7.88,-7.4,-7.32,-10.84,-11.08,-9.88,-7.6,-6.6,-7.56,2.76,24,54.76,88.56,125.68,166.56,200.2,234.12,263.6,284.24,291.48,283.84,259.04,231.28,210.56,197.88,179.72,151.64,118.08,87.12,69.68,57.56,41.2,25.04,2.56,-5.12,-13.92,-20.6,-26.08,-33.6,-37.48,-41.56,-43.16,-45.12,-46.52,-49.56,-51.84,-54.24,-50.84,-48.72,-45.56,-45.24,-43.64,-44.32,-43.6,-44,-46.8,-45.68,-47.16,-47.28,-46.92,-45.52,-45.2,-45.04,-45,-47.52,-40.96,-41.72,-39.96,-44.16,-48.88,-48.4,-48.52,-47.32,-46.68,-49.12,-47.76,-48.68,-43.68,-42.2,-44.76,-46.36,-49.56,-48.64,-47.44,-46.2,-47.4,-48.2,-49.56,-49.88,-46.64,-42.64,-42.6,-38.04,-39.6,-41.24,-39.44,-37.52,-32.52,-29.2,-30.36,-32.04,-28.4,-25.92,-21.8,-21.24,-19.12,-15.92,-13.16,-11.28,-11.92,-12.48,-10.6,-8.04,-4.8,-2.84,-1.8,-0.96,0.4,1.8,5.36,8.96,6.8,5,1.6,0.56,-1.12,1.92,-0.16,-4.52,-4.88,-5.8,-6.08,-5.4,-2.64,-3.72,-5.68,-9.24,-10.48,-11.6,-14,-15.92,-17.8,-20.04,-19.24,-14.28,-14.36,-14.6,-13.64,-13.8,-11.84,-12.52,-12.8,-14.04,-18.4,-16.32,-18.36,-18.8,-17.36,-15.68,-18.16,-20.56,-18.84,-15.32,-13.12,-13.52,-15.8,-15.96,-15.44,-18.64,-17.44,-17.76,-19.28,-19.6,-16.16,-13.68,-13.84,-12.24,-15.12,-14.4,-14.68,-11.84,-13.24,-16.36,-20.08,-19.36,-19.08,-14.52,-11.08,-8.52,-11.76,-14.24,-12.92,-11.44,-8.56,-9.36,-12.2,-12.76,-9.16,-4.36,-3.96,-1.52,-1.88,-0.8,0.72,0.8,0.12,-1.96,-4.84,-2.76,-2.08,-2.08,-1.24,0,1.96,6.76,9.4,14.04,15.16,13.04,8.16,8.84,15.8,21.72,24.4,23.44,25.44,25.6,30.56,36.28,39.04,39.84,38.24,32.16,31.12,30.68,27.68,25.8,19.48,9.72,0.8,-7.2,-12.24,-14.4,-13.56,-13.76,-15.52,-15.92,-15.68,-18.12,-19,-20.92,-20.48,-18.16,-16.24,-16.08,-14.12,-16.28,-13.36,-11.64,-11.16,-13.6,-15.4,-12.92,-14.76,-15.68,-13.2,-14.88,-15,-19,-17.2,-12.48,-5.44,7.32,29.52,60.92,97.48,135.2,172.8,210.32,238.24,256.68,268.32,274.04,264,232.92,203.04,178.4,163.2,149.4,123.04,89.32,59.88,41.84,32.32,20.12,5.2,-11.12,-21.44,-26.8,-32.92,-38.84,-42.32,-44.84,-48.56,-52.16,-57.64,-59.76,-62.32,-60.4,-59.32,-57.68,-57.12,-53.68,-52.08,-51.04,-53.44,-52.92,-52.72,-52.36,-53.76,-54.8,-57.44,-58.36,-54.2,-51.52,-48.92,-47.28,-47.8,-50.92,-49.28,-46.48,-49,-52.28,-53.48,-57.44,-56.36,-51.32,-52.16,-52.4,-53.76,-52.92,-49.64,-46.12,-48.36,-49.44,-49.8,-52.08,-53.28,-57.24,-54.16,-54.24,-53,-52.08,-48.44,-43.72,-41.24,-41.72,-40,-41.12,-37.64,-36,-34.2,-34.8,-36.96,-33.12,-29.96,-21.24,-17.64,-16.76,-13.16,-9.56,-5.2,0.36,2.72,3.4,4.28,3.56,6.08,12.72,16.8,20.64,17.16,19.04,22.32,24.68,23.92,19.44,16.84,14.36,13.96,13.24,10.52,9.04,6.16,7.12,6.52,8.4,9.68,7.24,1.6,-1.8,1.32,2.72,2.68,-2.8,-6.24,-8.76,-9.64,-3.8,-1.24,-0.16,-0.76,-1.08,1.12,3.44,0.6,-0.96,-2.04,-5.64,-5.36,-6.32,-0.6,-1.96,0.44,0.44,0.68,1.36,-1.48,-2.12,-5.84,-6.44,-10.64,-10.4,-11.12,-8.96,-7.08,-2.44,1.96,6.68,8,10.76,16.08,21.56,33.76,50.12,65.8,81.2,99.68,125.84,157.48,188.88,215.44,240.36,269,305.28,342.56,375.32,402,416.96,420.24,411.16,375.68,321.52,266.64,221.44,180.68,138.48,94.84,52.12,11.84,-17.72,-37,-42.24,-44.08,-42,-42,-40.72,-41.16,-44.04,-41.24,-37.76,-32.84,-32.88,-33.24,-36.68,-37.96,-41.48,-44.4,-46.44,-46.32,-51,-53.56,-56.56,-56.8,-57.24,-56.2,-54.12,-55.76,-64.16,-70.4,-80.84,-85.64,-87.6,-84.64,-80.64,-81.04,-82.92,-82.16,-85.56,-84.52,-79.56,-82.16,-82.44,-85.68,-87.2,-89,-88.24,-87.24,-86.16,-85.48,-89.36,-90.76,-88.36,-91.16,-90,-90.52,-88.8,-89.04,-87.64,-87.56,-92.84,-87.72,-87.72,-88.12,-82,-80.32,-79.8,-80.6,-81.36,-76.84,-72.16,-69.28,-70.76,-70.36,-68.68,-64.8,-60.68,-54.96,-53.56,-51.8,-50.24,-44,-37.76,-33.04,-31.08,-32.88,-32.12,-27.68,-25.16,-18.08,-13.8,-12.84,-14.32,-9.92,-5.4,-3.08,-3.76,-5.04,-8,-6,-3.32,-4.8,-4.28,-8.24,-7.12,-4.4,-0.96,-0.64,-0.32,-1.08,-3.92,-1.68,0.04,-1.8,-4,-5.28,-3.88,-3.08,-1.4,0.08,-2.24,-3.92,-4.56,-0.52,-1.56,-2.4,-2.56,-5.32,-7.4,-4.72,-2.44,-1.64,-1.8,-2.88,-2.12,-0.52,4,4.32,3.64,-0.04,-4.04,-4,-1,0.52,-4.04,-6.28,-7.28,-0.36,2.44,0.16,-0.16,-1.8,-2.44,-4.12,-2.88,-2.28,-3.52,-4.24,-3.08,0.24,4.12,7.32,6.44,6.08,4.76,8.16,10.84,12.68,11.24,11.8,9.92,9.8,12.84,13.56,11.88,8.48,7.2,4.88,4.48,6.2,6.48,4.08,-0.04,-2.24,3.6,2.92,5.44,-2.16,-4.04,-1.64,2,1.84,1.36,-2,-5,-0.72,0.6,1.76,3.04,1.72,0.6,0.28,4.24,2.52,1.12,2.12,0.8,-1.52,-2.44,-2.28,-1.2,-2.12,-1.16,0.24,4.96,3.72,3.84,-0.96,-2.36,-1.52,2.04,-0.4,-2.08,-6.84,-6.8,-5.92,-4.04,0.28,-0.88,-1.88,-2.76,-1.64,-2.24,-2.6,-2.88,-2.44,-5,-4.8,-3.68,-1.84,-0.84,-4.48,-2.84,0.32,-1.56,-3.52,-2.8,-3.08,-5.32,-5.04,-1.76,-2.44,-2.04,-5.96,-8.88,-6.6,-1.96,-4.84,-4.56,-8.48,-8.72,-5.04,-4.36,-4.92,-4.44,-4.96,-9.56,-5.64,-3.68,-3.32,-2.52,-4.28,-4.08,-3.28,-1.76,-2,2.76,4.44,5.64,11.84,17.92,18.84,19.96,17.28,16,17.88,23.92,26.76,25.36,26.12,24,26.64,30.64,34.84,36.12,33.2,31.4,33.64,34.44,34.48,27.64,20.64,16.32,10.04,3.96,-4.16,-13.08,-19.76,-22.32,-19.36,-19.16,-16.64,-18.48,-18.44,-22.32,-22.4,-19.76,-19.88,-20.68,-21.68,-20.64,-15.56,-14.32,-14.24,-13.88,-14.16,-15.2,-11.16,-9.16,-11.16,-13.48,-11.44,-13.24,-12.36,-10.48,-12.44,-12.12,-8.96,-1.6,13.04,32,60.16,92.28,125.4,164,196.04,230,252.84,269.84,284.92,298.16,299.12,278.48,243.12,209.24,191.68,170.76,148.76,122.32,95.2,75.12,57.12,39.28,21.28,7.32,-1.88,-13.36,-22.72,-32.4,-40.32,-43.32,-44.24,-46.52,-51.56,-56.72,-56.88,-56.96,-55.92,-58,-61.28,-60.76,-56.48,-53.4,-53.24,-54.96,-55,-57.44,-53.56,-54.88,-51.16,-52.44,-57.36,-56.52,-53.88,-50.4,-48.12,-48.76,-54.44,-55.08,-54.2,-53.56,-50.36,-52.04,-52,-54.12,-54,-54.08,-52.32,-50.72,-49.16,-47.72,-47.48,-49.16,-49.32,-51.76,-52.44,-53.12,-50.16,-47.56,-46.32,-48.28,-50.44,-50.72,-46.6,-43.2,-38.96,-40.64,-37.76,-38.12,-35.88,-32.72,-30.68,-29.8,-29.4,-27.36,-24.8,-18.48,-14.92,-15.4,-13.48,-10.56,-6.28,-4.28,-3.32,-2.44,-7.32,-2.16,2.8,7.76,11.64,14.2,15.68,20.24,23.92,26.92,26.44,26.44,26.08,22.84,22.68,24.56,27.36,25.24,21.72,21.68,24.2,25.68,21.6,19,14.96,9.08,7.64,5.28,3.24,0.24,-2.68,-5.76,-3.48,-1.68,-4.12,-8.6,-8.6,-9.56,-10.92,-11,-14.72,-18.16,-21.52,-21.92,-19.16,-17.36,-17.88,-15.12,-16.52,-14.12,-17.12,-17.28,-14.6,-14.52,-22.2,-23.56,-23.04,-20.4,-20.48,-20.64,-20.04,-18.28,-15.92,-13.6,-14.44,-16.44,-19.72,-21.68,-24.32,-21.72,-19.28,-21.68,-21.76,-22,-15.28,-14.32,-12.4,-10.48,-14.16,-13,-12.04,-10.44,-6.76,-3.72,-4.32,-7.16,-5.92,-3.92,-0.36,2.68,1.24,-1.24,1.08,1.28,1.2,0.68,-1.76,0.52,1.12,3.36,6.84,11.32,15.64,17.2,23.28,27.28,25.28,22.52,23.56,26.04,28.44,31.48,32.2,35.44,35.08,38.64,40.88,43.52,43.72,40.76,35.8,34,31.08,27.4,19.96,8.04,-2,-8.8,-14.4,-15.88,-16.44,-16.76,-20.32,-24.36,-23.6,-23.52,-21.36,-19.96,-23.24,-23.32,-20.4,-17.32,-19.84,-21.24,-19.6,-20.88,-14.6,-12.72,-10,-11.88,-14.68,-16.24,-14.6,-12.8,-13.84,-18.6,-23,-22.36,-17.84,-10.24,5.08,31.16,61.04,96.2,132.4,172.88,208.68,241.6,264.68,282.04,292.56,290.24,262.84,234.72,211.24,185.32,164.32,137.68,108.16,84.8,67.68,50.72,34.6,17.16,2.92,-13.16,-25.36,-33.56,-38.2,-38.2,-42.12,-45.68,-53.32,-57.76,-55.08,-54.16,-54.28,-53.48,-55.68,-54.96,-51.56,-49.16,-49.04,-49.92,-52,-49.64,-48.36,-47.96,-47.28,-51.24,-51.32,-50.44,-48.72,-47.96,-48,-46.2,-45.8,-45.76,-45.8,-44.48,-45.2,-46.72,-48.08,-51.08,-49.48,-49.68,-47.88,-47.08,-48.16,-47.28,-43.08,-43.08,-43.28,-44.96,-47.36,-48.88,-48.68,-49.92,-47.4,-44.28,-45.4,-42.52,-40.68,-37.68,-38.52,-35.4,-36.76,-33.96,-32.44,-34.48,-37.88,-41.6,-44.48,-43.08,-36.56,-29.8,-23.52,-20.6,-22.52,-21.12,-13.72,-10,-5.4,-3.88,-4,-5.88,-5.24,-1.36,0,-0.44,-1.48,0.12,2.64,6.12,6.64,3.6,0.48,-1.64,-3.88,-3.72,-7.96,-8.88,-11.4,-14.56,-13.56,-14.16,-12.36,-9.68,-10.16,-10.28,-10.44,-8.56,-9.6,-12.36,-15.16,-16,-14.56,-11.84,-11.76,-8.32,-11.52,-9.96,-8.48,-5.68,-5.88,-7.04,-9.4,-8.72,-9.12,-9.24,-11,-12.24,-12.96,-11.68,-5.96,-2.76,-1.2,-3.32,-3.36,-6.32,-7,-6.4,-5.72,-7.76,-9.64,-11.96,-8.88,-5.68,-1.88,-3.6,-3,-5.36,-1.52,-2.64,-6.44,-7.8,-10.24,-13.56,-11.8,-10.36,-7.24,-6.88,-6.6,-5.36,-3.64,-2.88,-1.56,-0.16,-0.52,-1.48,-1.04,-0.68,-1.52,-2.12,-3,0.2,5.44,11.64,14.56,16.4,20.68,24.32,28.32,27.76,26.64,21.36,22.04,24.08,29.52,37.24,45.28,43.52,44.36,44.08,43.08,42.36,40.52,35.16,31.28,25.12,22.6,17.52,4.96,-5.28,-15.16,-17.96,-18.28,-17.44,-17.28,-17.96,-20.72,-23.2,-19.16,-18.32,-18.76,-18.68,-19.4,-20.6,-17.52,-14.4,-12.64,-11.6,-15.4,-14.12,-10.96,-6.56,-4.4,-10.56,-13.88,-16.72,-15.48,-18.84,-15.64,-16.64,-12.8,-0.8,24.44,61.56,98.76,138.2,175.6,215.6,248.16,275.28,294.44,295.2,273.4,242.56,219.32,197.4,171.76,133.92,104.08,84.48,69.88,53.84,32.64,13.84,-0.88,-16.36,-28.52,-32.4,-32.28,-36.88,-42.4,-51.28,-51.32,-51.2,-53.64,-56.44,-56.72,-59.72,-57.76,-52.28,-52.24,-51.8,-52.56,-52.24,-48.92,-45.76,-48.64,-48.08,-58.04,-56.48,-56.6,-50.76,-51.76,-51.36,-50.28,-48.68,-51.6,-50.32,-51.08,-52.76,-52.6,-51.12,-46.32,-45.64,-46.72,-49.72,-56.68,-54.36,-55.64,-49.08,-48.88,-49.44,-50.2,-52.92,-48.92,-47.44,-46.4,-44.52,-44.48,-44.6,-40.08,-41.44,-37.68,-37.2,-35.24,-31.48,-31.88,-30.24,-27.4,-27.72,-26.4,-23.8,-19.36,-12.72,-10.16,-7.36,-3.52,0.32,3.44,10.84,10.08,12.32,10.88,8.48,9.36,10.4,11.36,10.4,7.44,7.44,10.32,12.32,12.64,9.08,5.56,0.8,-1.6,-4.12,-6.4,-7.44,-9.4,-16.32,-12.44,-9.4,-8.36,-7.2,-7.8,-8.24,-8.64,-4.28,-6.44,-11.12,-17.36,-19.52,-16.44,-12.4,-9.24,-7.76,-8.44,-6.36,-3.12,-3.52,-5.92,-6.6,-8.68,-10.48,-8.88,-8.28,-8.28,-11.36,-8.68,-8.68,-6.8,-2.96,-3.72,-7,-8.32,-9.12,-9.4,-10.48,-11.72,-12.04,-13.08,-14.16,-15.6,-11.84,-9.92,-5.08,-5.8,-6.2,-9.92,-7.92,-9.16,-12.08,-15.24,-16.8,-15,-11.44,-8.92,-10.4,-10.48,-9.8,-7.48,-5.4,-5.2,-5.68,-5.36,-5.64,-5.32,-0.2,2.96,9.72,12.92,20.56,26.52,28,26.44,21.76,23.08,25.16,30.2,36,34.8,34.48,38.88,43.88,49.48,49.48,44.92,39.32,36.84,34.96,34.96,30.64,24.8,14.8,0.44,-7.84,-13.56,-12.64,-14,-14.72,-16.28,-18.92,-15.44,-15.28,-14.28,-17.56,-19.44,-19.36,-15,-17.4,-16,-16.8,-19.2,-15.92,-12.48,-11.24,-12.84,-14.6,-15.6,-16.92,-14.8,-12.64,-16.96,-20.32,-23.84,-21.76,-11.48,4.84,32.16,61.68,94.08,133.36,173.16,209.68,239.04,261.28,282.08,288.88,278.32,257.36,232.76,205.16,179.84,143.28,114.84,96.12,82.92,65.56,45.28,22.56,8.32,-4,-13.48,-21.36,-31.84,-38.44,-41.64,-46.16,-50.44,-51.92,-59.32,-60.8,-62.24,-60.2,-54.4,-50.8,-52.32,-53.24,-50.92,-49.6,-49.64,-47.92,-47.16,-48.64,-49.12,-50.56,-51.68,-47.28,-47.12,-47.32,-45.96,-42.28,-43.84,-47.36,-47.32,-47.56,-42.96,-44.6,-47.2,-48.4,-51.4,-53.2,-51.44,-49.76,-48.2,-49.28,-49.76,-48.36,-48.44,-45.76,-46.08,-48.8,-52.36,-51.52,-48.6,-43.36,-41.36,-40.44,-37.92,-37.64,-35.92,-32.76,-33.12,-31.64,-32.44,-30.92,-28.04,-24.6,-22.6,-21.8,-19.6,-16.96,-13.4,-6.4,-3.96,-1.6,0.36,3.12,5,2.84,2.04,-0.76,-1.92,-2.44,0.24,1.2,3.32,1.96,4.76,2.28,3.4,2.16,0.16,-4.76,-11.48,-15.28,-12.52,-8.16,-7.48,-9.28,-8.16,-6.24,-5.48,-4.8,-4.4,-6.52,-9.64,-11.72,-12.44,-13.2,-15.16,-18.52,-14.84,-15.68,-9.48,-8.52,-6.6,-7.84,-8.56,-7.84,-9.08,-12.32,-11.92,-11.72,-12.88,-13.6,-15.52,-8.8,-8.88,-7.92,-6.96,-6.2,-6.08,-2.68,-4.88,-8,-11.48,-14.32,-13.6,-13.32,-15.08,-13.64,-13.76,-11.88,-10.36,-8.68,-7.64,-9.32,-10.72,-14.84,-13.48,-14.4,-15.72,-15.48,-16.6,-17.4,-13.84,-11.08,-8.24,-9.96,-13.76,-10.4,-11.56,-7.16,-7.12,-7.48,-10.6,-9.44,-4.72,2.72,6.88,11.84,10.92,13.16,13.4,14.2,11.92,12.6,16.24,21.32,25.32,29.52,30.76,34.8,37.64,37.28,37.92,38.84,36.96,30.56,28.12,23.88,21.2,15.24,6.12,-4.56,-14.16,-18.92,-17.32,-14.8,-15.04,-16.96,-18.8,-21.04,-19.6,-16.92,-15.52,-17.36,-21.52,-20.04,-14.76,-12.72,-14,-16.32,-16.64,-14.84,-13.96,-12.32,-12.48,-11.56,-15.96,-17.76,-17.12,-18.88,-21.52,-25.52,-23.68,-10.96,10.6,40.44,73.44,105.2,139.96,179.84,216.24,250.48,274.28,285.84,281.32,264.44,238.32,218.92,198.48,171.36,139.52,110.32,91.08,81.96,69.44,52.64,31.44,13,-0.52,-8.36,-19.28,-31.56,-39.04,-45.36,-50.52,-51.8,-54.08,-59.48,-63.2,-65.04,-63.28,-60.6,-59.88,-60.68,-57.4,-58.64,-56.04,-53.32,-54.32,-56.2,-55,-56.12,-55.92,-54.92,-56.08,-56.2,-56.36,-55.2,-52.04,-48.4,-47.76,-50.04,-50.88,-52.92,-52.84,-51.04,-54.8,-57.72,-57.96,-58.2,-56.36,-53.44,-51.08,-50.48,-53.88,-55.28,-52.24,-47.16,-44.88,-48.08,-50.6,-52.56,-51.52,-51.72,-51.2,-47.16,-45,-45.68,-39.56,-36.4,-31.64,-29.28,-26.52,-28.84,-25.72,-23.68,-19.6,-16,-10.84,-7.88,-2.6,1.48,2.16,2.04,0.44,3.48,4.88,5.88,4.72,4.2,4.56,4.56,4.8,5.84,6.36,4.64,-2.52,-5.64,-7.48,-5.44,-6,-6.84,-8.96,-10.52,-8.4,-6.44,-8.04,-9.72,-10.04,-10.6,-11.84,-11.92,-12.72,-12.6,-13.16,-16.84,-14.96,-13.36,-11.28,-11.08,-8.56,-9,-3.28,-2,-4.28,-8.24,-10,-13.12,-9.68,-9.52,-10.8,-13.32,-13.6,-12.76,-9.72,-4.44,-4.68,-5.32,-6.44,-4.4,1.64,3.44,-1.92,-9.68,-15.84,-16.36,-14.92,-10.2,-9.96,-6.64,-6.92,-9.64,-8.92,-9.88,-14,-15.24,-13.48,-15.16,-12.64,-11.36,-13,-15.52,-16.56,-18.52,-15.96,-12.36,-10.76,-7.56,-10.44,-8.56,-6.52,-1.64,3.44,12.12,15.48,17.36,18.96,19.16,16.6,19.6,21.48,27.68,36.48,40.16,44.56,52.28,59.96,61.04,60.44,56.6,51.6,49.44,44.6,40.16,38.72,33.76,29.32,17.04,4.48,-4.84,-6.24,-3.4,-2.88,-3.56,-7.64,-10.88,-8.64,-6.24,-8.4,-9.28,-14.8,-14.08,-12.64,-10,-8.36,-8.32,-8.96,-9.72,-8.08,-5.32,-6,-6.48,-5.48,-5.6,-5.2,-8.64,-13.28,-13.36,-15.76,-11.76,4.48,27.6,57.16,84.12,112.48,143.12,179,213.68,244.24,265.04,277.68,280.6,264.08,238.92,213.24,193.36,173.92,151.04,121.44,102,88.16,70.12,53.96,34.88,19.68,10.56,-2.76,-11.8,-20.32,-30.04,-34.36,-38.16,-41.64,-45.96,-48.72,-52.84,-53.24,-51.4,-52.52,-50.64,-50,-48.04,-46.64,-45.56,-47.04,-47.88,-48.44,-48.84,-49.08,-49.64,-52.16,-53.12,-53.08,-54.08,-48.52,-45.68,-41.24,-42.84,-46.2,-49,-47.2,-44.32,-43.28,-46.52,-51,-50.88,-50.84,-48.88,-45.24,-46.32,-46.76,-48.44,-47.88,-46.96,-45.92,-45.92,-50.92,-54.2,-52.68,-52.84,-53.6,-50.52,-49.88,-50.12,-47.8,-43.64,-45.12,-45.04,-44.88,-45.8,-42.72,-41.92,-38.04,-35,-36.04,-35.48,-30.6,-26.8,-25.52,-22.48,-21.48,-20.88,-16.36,-13.72,-15.56,-16.6,-16.36,-12.28,-6.48,-2.8,-2.76,-2.04,-3.92,-2.96,-0.84,1.4,2.44,-3.4,-6.4,-9.52,-9.84,-8.32,-8.04,-9.76,-8.84,-8.48,-6.2,-7.24,-7.84,-8.4,-13.28,-16,-15.96,-18.96,-18.76,-19.96,-19.44,-19.96,-17.84,-11.56,-13.2,-15.36,-15.08,-15.72,-15.96,-14.8,-19.92,-19.96,-19.84,-21.52,-17.68,-14.64,-11.6,-13.28,-10.84,-10,-5.84,-6.8,-7,-7.68,-11.64,-8.64,-8.72,-6.4,-1.48,-3.32,-2.16,-1.96,0.48,2.2,3.52,-0.36,-0.4,-4.08,-5.12,-2.16,-4.28,-5,-7.28,-7.24,-3.36,0.88,0.96,1.6,2.08,2.16,4.04,6.32,7.68,6.08,5.2,6.48,8.56,10.56,10.56,9.64,8.68,7.48,8.08,7.04,7.72,8.2,7.92,10.48,14.88,20.28,21.68,25.32,25.92,24.68,25.28,28.64,31.12,31,31.6,30.96,36.56,45.08,46.6,44.12,41.56,40.36,41,41.8,41.44,33.92,27.44,22.44,10.88,2.12,-5.24,-12.68,-14.12,-15.52,-14.04,-14.4,-13.56,-14.64,-16.68,-16.24,-13.84,-9.96,-12.36,-14.92,-15.2,-17.56,-19.24,-14.76,-14.24,-14.48,-14.44,-13.48,-8.6,-5.36,-2.92,-3.92,-9.2,-12.64,-15.16,-14.72,-17.2,-19.64,-16.16,-8.28,5.64,28.36,55.44,86.8,123.24,161.28,199.84,232.44,257,277.56,290.32,288.88,271.28,244.04,219.2,197,174.28,147.8,117.16,97.2,85,74.76,55.48,35.12,20.88,11.52,2.12,-7.08,-23.88,-33,-34.76,-34.28,-40.84,-46.72,-51.84,-52.28,-50.6,-47.16,-50.24,-52.48,-53,-49.52,-46.64,-44.84,-47.48,-49.04,-51.56,-52.32,-48.64,-50.32,-46.72,-50.52,-51.72,-50.96,-45.8,-43.68,-42.84,-41.88,-43.64,-45.16,-46.64,-42.36,-41.6,-43.04,-48.6,-50.2,-49.32,-47.32,-46.76,-46.2,-47.04,-45,-45.72,-44.16,-46.44,-46.08,-51.32,-51.72,-48.44,-46.88,-43.92,-44.88,-43.24,-39.88,-34.84,-32.88,-32.44,-32.88,-31.92,-29.68,-25.08,-18.64,-17.48,-17.6,-16.68,-19.72,-15.28,-11.12,-4.76,-1.64,-1.2,-0.92,1.32,4.36,2.52,1.56,2.36,4.52,5.96,8.76,10.28,9.68,6.48,4.88,8.24,9.64,9.04,5.84,3.04,1.44,1.68,-0.88,-3.76,-4.36,-6.24,-8,-7.64,-6.76,-5.04,-6.12,-7.24,-12.12,-9.84,-7.36,-7.72,-7.92,-10.52,-12.96,-14,-11.28,-10,-10.28,-12.68,-13.2,-12.64,-13.64,-17.88,-20.8,-21.56,-25.92,-23.52,-19.96,-21.32,-22.92,-23.48,-25.6,-23.16,-19.8,-19.2,-21.92,-26.24,-30.08,-29.04,-26.56,-29.2,-30.36,-30.76,-31.36,-27.08,-21.4,-22.64,-20.96,-21,-22.8,-21.32,-24.44,-23.48,-24.88,-26.6,-22.68,-22,-18.48,-17.68,-14.12,-14.36,-12.48,-5.16,-2.52,-3.52,-3.36,-7.56,-8.04,-6.52,-3.92,-5.04,-4.6,-5.88,-7.24,-6.56,-3.96,-1.92,-1.08,-2.52,-2.84,-5,-2.4,-6.6,-8.4,-8.04,-4.92,2,3.24,3.72,4.44,4.48,1.16,0.44,4.08,6.08,9.92,12.68,10.76,16.04,21.2,22.32,23.68,26.36,23.96,24.8,23.48,20.96,16.68,16,11.72,9.28,1.28,-7.24,-18,-24.92,-29.44,-26.8,-27.2,-26.4,-28.44,-28.8,-30.12,-30.08,-30.4,-32.72,-31.48,-31.12,-30.96,-29.12,-27.56,-27.84,-25.08,-28.2,-28.2,-24.96,-24.36,-22.16,-26.2,-27.2,-26.04,-25.8,-23.56,-29.48,-29.76,-28.92,-21.12,-2.12,27.92,64.44,101.24,135.52,176.44,211.44,240.52,262.88,281.28,294.76,287.64,265.48,237.28,210.32,191.56,166.04,132.84,96.24,67.24,54.36,44.52,29,9.28,-4.32,-16.56,-22.52,-30.64,-38.56,-45.32,-47.04,-49.48,-54.08,-54.16,-60.04,-66.84,-67.48,-58.6,-56.4,-50.68,-45.56,-40.76,-37.8,-38.8,-37.4,-35.72,-33.4,-36.64,-38.88,-41.04,-33.84,-28.88,-32.6,-37.04,-33.12,-28.36,-25.16,-26.96,-27.68,-32.08,-27.8,-26.2,-26.96,-29.52,-29.84,-32.84,-29.6,-23.16,-24,-27.12,-31.84,-29.76,-30.64,-27.2,-27.72,-29.84,-30.72,-35.4,-35.84,-33.96,-33.48,-31.72,-27.64,-24.8,-20.72,-17.68,-17.52,-17.16,-13.56,-15.76,-10,-3.68,-3.04,-5.92,-4.4,-2.56,3.24,9.84,12.72,12.96,9.96,10.04,12.8,13.8,15,14.16,14.84,10.12,12,13.68,19.16,18.84,14.8,14.12,14.8,14.68,11.6,8.76,4.68,4.28,3.44,3.4,1.32,1.72,-3.2,0.72,5.76,6.12,4.12,0.36,-4.48,-5.04,-2.92,-1.48,-3,-4.64,-2.6,-3.24,-1.28,-0.52,1.56,-0.04,-4.16,-5.08,-3.92,-4.76,-8.6,-14.6,-13.32,-13.4,-8.68,-7.68,-7.64,-7.84,-9.56,-9.28,-5.48,-4.56,-5.48,-11.2,-18.12,-19.04,-16.76,-17.88,-19.04,-19.96,-19.96,-19.04,-19,-16.8,-19.68,-18.6,-19.28,-19.2,-20.24,-23.2,-23.88,-25.68,-30,-29.96,-27.04,-23.8,-19.16,-17.72,-16.16,-14.6,-13.96,-11.36,-12,-11,-12.72,-10.84,-11.72,-10.24,-11.32,-11.32,-12.12,-13.56,-11.24,-7.2,-7.08,-7.64,-10.76,-13.28,-13.8,-7.88,-3.24,-2.32,-2.6,-2.04,-0.2,2.04,1.4,0.4,1.4,4.96,10.52,15.88,17.32,16.72,15.68,18.88,21.96,22.72,17.68,12.92,12.48,11.64,11.76,11.2,0.88,-11.88,-26.08,-29.32,-29.6,-29.64,-32.32,-31.36,-32.2,-30.96,-30.4,-30.36,-34.04,-38.4,-38.72,-38.52,-36.84,-35.32,-37.44,-40.12,-38.8,-36.04,-31.2,-30.92,-29.32,-30,-31.68,-31.16,-24.48,-22.52,-24.64,-28.04,-29.12,-28.68,-22.32,-15.56,-4.64,17.72,45.48,77,118.48,161.72,201.72,232,255,276.52,291.24,293.72,278.32,254.44,229.48,203.96,185.44,165,134.68,108.16,86.44,72.76,61.72,48,29.88,13.44,0.28,-4.64,-7,-10.72,-19.16,-24.64,-28.24,-31.92,-33.8,-32.6,-34.6,-39.16,-40.28,-37.8,-31.44,-29.64,-30.04,-31.88,-31.32,-31.88,-32.72,-30.64,-33.44,-31.08,-33.88,-33.36,-31.52,-27.12,-25.76,-26.92,-31,-29.48,-27.72,-25.04,-22.64,-26.6,-26.36,-28.12,-26.84,-25.24,-25.24,-25.84,-24.56,-24.8,-22.2,-19.68,-23.72,-27,-30.56,-30.8,-28.72,-27.52,-27.08,-32.44,-33.52,-33.36,-30.32,-30.56,-27.04,-27.4,-26.36,-26.56,-25.2,-23.56,-23.76,-20.24,-21.6,-21.24,-19.88,-15.2,-13.48,-12.2,-4.88,-2.32,2.92,7.28,9,8.76,8.96,11.64,16.96,21.2,19.84,20.8,19.28,20.84,20.48,21.52,19.72,18.72,17.88,14.96,18.32,14.28,15.92,13.6,8.56,6.6,2.08,0.68,-0.68,-1.48,-4.2,-6.24,-6.04,-5.92,-9.36,-8.08,-8.36,-11.6,-8.88,-7.84,-10.32,-11.72,-15.2,-17.08,-16.92,-18.04,-17.84,-20.56,-20.4,-22.48,-19.36,-15.76,-16.12,-19.16,-20.68,-19.96,-18.68,-17.56,-18.32,-21.36,-21.32,-20.16,-19.96,-19.04,-23.8,-22.96,-23.52,-25.6,-23.24,-21.52,-21.08,-19.92,-22.56,-26.68,-26.8,-21.72,-22.16,-24.04,-25.84,-26.12,-19.92,-20.2,-20.72,-23.72,-24.92,-25.84,-18.52,-16.56,-15.16,-16.32,-17.24,-16.92,-12.92,-9.48,-10.88,-12.24,-14.52,-16.68,-14.12,-10.08,-9.52,-7.36,-2.12,0.64,3.84,7.52,7.04,4,0.92,1.04,5.16,12.76,15.2,18.12,17.48,16.52,18.72,25.36,28.48,27.28,21.84,18.68,20.44,19.64,18.96,15.68,6.16,-4.96,-12.56,-18.64,-22.36,-20.56,-22.52,-23.56,-23.24,-24.36,-24.56,-25.08,-25.72,-27.04,-24.84,-24.88,-24.44,-23.36,-23.8,-21.16,-21.04,-19.28,-19.92,-20.92,-21.04,-17.64,-14.24,-16.8,-18.48,-19.44,-23.08,-23.04,-20.72,-16.08,-6.84,9.04,29.36,60.28,94.16,129.48,162.92,199.2,229.72,256.72,278,290,281.56,256.24,222.56,195.6,176.84,156.84,122.76,91.4,69.96,60.48,49.16,35.28,14.72,4,-5.28,-12.52,-17.36,-25.24,-32.8,-36.52,-40.56,-42,-43.6,-46.2,-46.68,-48.68,-50.36,-49.2,-47.64,-44,-40.76,-41.84,-41.36,-43.2,-39.8,-37.4,-37.28,-38.92,-43.48,-46.6,-43.32,-41.28,-39.68,-43,-40.8,-42.84,-41.48,-40.36,-39.64,-37.68,-41.04,-45.48,-42.88,-42.24,-42.92,-43.76,-42.16,-42.6,-41.4,-39.64,-40.16,-43.88,-42.04,-44.32,-41.68,-41.08,-42.44,-43.76,-44.48,-42.44,-38.84,-35.28,-35.24,-36.36,-36.96,-36.64,-32.96,-28.44,-26.64,-28.84,-29.16,-30.4,-26.36,-21.84,-17.76,-17.96,-15.04,-14.56,-12.84,-10.12,-7.76,-5.44,-4.56,-2.64,0.52,0.52,2.92,3.64,3.72,5.04,6.52,9.96,10.92,9.96,6.8,1.68,1.16,-0.16,-1.28,-1.6,-2.84,-3.64,-4.04,-3.44,-1.72,-1.92,-4.76,-5.76,-5.04,-6.16,-6.6,-9.44,-12.28,-12.48,-10.8,-6.72,-7.08,-7.36,-6.44,-6.68,-3.84,-4,-5.2,-9.36,-10.72,-12.68,-11.92,-12.64,-10.32,-10.44,-12.84,-11.04,-11.32,-6.64,-6.8,-7.92,-12.12,-12.32,-13.64,-9.72,-11.72,-11.36,-12,-13.12,-8.64,-6.84,-6.24,-6.4,-5.56,-8.64,-11.92,-11.12,-10.28,-8.44,-11.36,-11.04,-6.84,-5.04,-7.68,-4.68,-4.76,-2.36,-0.8,0.2,1.16,-0.72,-0.56,-4.28,0.04,1.2,5.16,4.4,3.32,1.16,4.52,5.6,5.28,3.32,-1.08,0.64,2.84,7.76,11.64,16.16,18.4,21.24,24.6,24.16,24.32,25.12,24.56,25.6,32,32.64,34.76,34.76,35.84,38.28,37.52,39.4,38.6,37.52,33.96,33.64,35.12,33,25.56,11.32,-4.44,-10.4,-17.48,-13.24,-12.84,-15.8,-15.52,-15.68,-16.32,-13.84,-14.28,-14.32,-19.52,-17.72,-19.68,-19.76,-18.8,-18.44,-16.96,-15.92,-15.64,-15,-11.56,-13.96,-17.44,-17.52,-15.64,-14.04,-15.96,-19,-18.84,-19.52,-15.08,-5.12,8.2,31.92,58.44,91.04,130.56,170.36,208.32,237.2,259.28,278.36,290.48,282.76,256.36,228.6,204.08,187.76,170.44,144.76,116.52,86.6,71.6,55.8,38.8,19.04,5.32,-7.44,-14.64,-23.4,-31.12,-36.4,-40.72,-47.24,-53.44,-55.48,-56.84,-57.04,-54.2,-56.92,-59.64,-59.32,-56.6,-53.64,-52.56,-50,-53.4,-54.96,-53.36,-52.6,-53.88,-54.16,-56.4,-55.2,-52.96,-50.64,-47.8,-47.52,-50.24,-51.48,-49.56,-49.8,-49.76,-51.8,-53,-53.36,-54.64,-51.64,-53.36,-54.96,-53.96,-51.72,-49.68,-47.96,-46.28,-49.12,-50.04,-52.2,-51.56,-48.96,-49.36,-48.16,-49.84,-49.36,-47.6,-44.52,-39.32,-40.68,-40.92,-39.6,-37.52,-33.84,-32.44,-31.04,-31.04,-29.8,-30.08,-25.28,-23.12,-22.72,-22.08,-20.36,-17.44,-12.76,-9.64,-5.24,-5.6,-2.16,0.72,1.84,3.08,5.4,3.6,2.52,5.6,4,2.8,1.12,-0.24,-3.4,-2.6,-1.76,-0.72,-3.28,-6.76,-6.16,-6.76,-6.72,-2.52,-9.16,-14.2,-12.88,-13.4,-10.6,-10.56,-10.64,-12.48,-12.88,-11.32,-8.76,-8.56,-10.48,-12.2,-14.84,-12.08,-9.72,-10.24,-10.48,-15.64,-15.24,-13.6,-13.4,-10.04,-11.32,-13.08,-14.16,-13.96,-10.6,-12.88,-14.28,-13.84,-16.04,-16.52,-14,-12.44,-11.12,-15.72,-15.08,-13.96,-10.28,-9.08,-8.72,-11.76,-13.36,-14.24,-10.6,-9,-11.36,-9.84,-13.76,-11.56,-11.2,-10.04,-11.96,-12.2,-11.04,-11.24,-1.72,-3.12,-3.92,0.12,-3.04,1.24,1.96,3.56,4.44,0.52,-0.48,2.16,1.68,2.88,2.44,3.04,6,13.48,19.76,23.52,22.44,22.6,19,17.68,21.28,22.64,26.08,29.4,29.68,31.96,36.8,37.24,39.64,41.6,41.4,40.44,38.8,35.6,29.36,20.84,14.4,6.36,-2.32,-9.96,-13.92,-15.36,-15.96,-16.12,-12.4,-11.24,-14.8,-17.8,-19.04,-18.72,-17.28,-12.32,-17.88,-18.48,-15.44,-13.96,-11.56,-9.76,-9.96,-11.8,-14.48,-10.44,-9.72,-12.24,-9.64,-11.68,-16.28,-14.96,-13.12,-8.52,-0.92,14.92,41.76,79.8,120.96,164.12,206.04,239.8,264.32,284.16,301.6,302.08,285.16,255.76,228.48,205.28,179.08,145.2,106.68,83.08,67.04,52.76,33.16,15.12,0.72,-11.76,-23.68,-30.2,-36.28,-38.36,-41.4,-44.28,-47.8,-51.84,-54.16,-55.36,-55.04,-58.08,-56.72,-52.32,-49.44,-46.84,-45.76,-46.72,-50.88,-50.76,-48.2,-45.04,-46.08,-49.76,-51.44,-49.28,-49.84,-47.44,-47.4,-47.84,-46.72,-49.8,-46.04,-47.8,-48.28,-50.04,-51.24,-50.04,-50.84,-49.44,-52.08,-50.72,-50.76,-46.32,-45.28,-45.4,-48.72,-48.28,-46.88,-43.84,-39.2,-39.84,-39.32,-40.96,-37.64,-32.52,-27.96,-27.28,-27.16,-29.48,-28.32,-24.84,-21.12,-20.48,-23.8,-26.04,-22.8,-16.36,-10.36,-6,-3.36,0.28,1.12,3.88,6.28,8.16,10.6,8.64,4.88,7.32,7.12,5.96,6.64,5.2,7.88,8.8,8.6,4.48,4.04,1.12,-1.2,-1.28,-3.04,-4.48,-7.56,-13.68,-11.08,-7.68,-4.96,-2.76,-3.56,-5.52,-6,-6.12,-6.72,-9.84,-13.4,-15.56,-15.24,-8.32,-8.64,-7.2,-9.44,-11.28,-8.84,-7.72,-5.24,-6.48,-8.08,-13.28,-16,-15.44,-13.48,-10.76,-12.4,-12.2,-12.6,-9.64,-7.44,-7.36,-6.68,-8.84,-9.48,-12.92,-12.88,-15.24,-17.12,-14.24,-14.96,-13,-8.64,-8.76,-8.48,-9.36,-9.76,-9.2,-7.12,-11.44,-16.4,-18.76,-17.64,-14.04,-13.16,-14.28,-14.96,-10.92,-9.52,-7,-3.52,-3.44,-5.64,-9.28,-9.4,-5.52,1.56,3.96,6.52,9.44,14.12,16.96,16.2,15.96,12.44,13.28,13.64,20.96,26.36,28.64,30.12,29.84,34.8,36.08,37.24,34.72,31.8,29.6,29.04,24.56,20.8,13.12,5.48,-2.16,-7.72,-17.2,-17.24,-17.68,-19.4,-18.8,-19.68,-18.96,-18.8,-21.24,-19.84,-23.4,-21.92,-19.72,-18.44,-20.84,-15.92,-15.2,-13.92,-16.48,-13.44,-10.8,-9.44,-11.84,-12.4,-11.04,-8.72,-11.4,-15.08,-15.48,-15.64,-9,-1.8,16.88,42.92,74.64,112.92,156.44,196.88,231.36,259.04,276.44,284.56,280,261.84,230.76,207.28,185,165.04,139.72,104.16,70.88,51.52,41.16,24.76,8.04,-4.76,-15.12,-23.12,-30.2,-33.64,-38,-41.28,-40.48,-44.84,-48.88,-55.08,-56.68,-57.48,-56.16,-59.04,-58.52,-56.6,-52.08,-50.56,-51,-55.08,-55.36,-55.52,-50.76,-48.04,-48.4,-48.92,-52.32,-57.92,-55.4,-56.28,-54.48,-50.8,-50.16,-54.36,-54.8,-54.04,-52.24,-54.48,-55.96,-57.6,-57.24,-53.84,-55.96,-55.84,-57.08,-57.56,-55.32,-50.48,-49.96,-51.08,-52.28,-55.36,-53.28,-47.96,-47.52,-48.96,-46.88,-50,-44.48,-36.72,-35.52,-36.88,-37.64,-37.12,-34.08,-31.8,-32.96,-32.56,-33.68,-30.36,-23.52,-16.68,-11.88,-9,-9.84,-5.84,-0.32,4.08,2.48,-0.8,-1.64,-5.64,-1.08,0.72,3.04,5.36,6.44,5.6,5,6,1.72,0.28,-4.12,-8.36,-8.32,-12.48,-9.88,-12.8,-11.32,-9,-3.96,-2.72,-1.24,-4.24,-7.44,-10,-6.52,-8.8,-14.4,-15.12,-16.4,-13.16,-8.84,-5.52,-6.52,-6.2,-7.88,-8.96,-8.32,-5.8,-8.52,-11.84,-13.64,-17.56,-16.24,-12.32,-10.44,-8.16,-7.96,-7.6,-5.28,-3.56,-4.96,-6.32,-11.28,-14.36,-16.36,-13.24,-13.88,-14.04,-11.24,-9.84,-4.72,-2.4,-5.16,-5.6,-7.96,-9.36,-9.6,-9.88,-11.8,-15.68,-17.44,-10.8,-7.2,-1.96,-1.72,-4.28,-4.32,-3.76,-3,-3,-3.52,-3.12,-5.64,-4.4,-1.4,1.4,3.88,6.32,10.4,11.04,15.16,22.96,22.72,20.32,14.76,13.48,17.56,25.2,27.6,29.92,32,34.2,41.96,44.44,45.44,39.12,37,31.44,31.64,31.12,25.16,17.8,10.24,0.48,-5.52,-8.28,-12.32,-14.8,-16.72,-16.2,-14.36,-13.04,-15.64,-16.96,-16.76,-16.28,-12,-12.16,-14,-14.76,-12.72,-11.96,-6,-6.68,-4.8,-5.48,-7.92,-13.32,-7.16,-7.8,-8.6,-10.68,-12.52,-8.24,-2.24,15.32,42.36,72.8,104.8,139.16,179.68,220,248.4,273.04,285.44,289.32,273.44,248.44,218.68,194.56,168.72,133.16,100.28,77.68,68.32,59.92,48.4,30.12,11.4,0.4,-7.28,-18.12,-25.8,-34,-38.08,-38.68,-41.44,-42.72,-49.96,-54.36,-56.04,-52.56,-50.32,-51.24,-53,-50.84,-46.8,-44.24,-44.48,-45.88,-47.76,-48.08,-45.48,-43.88,-45.44,-50.88,-51.24,-54,-49.32,-43.92,-40.52,-40.88,-39.96,-41.36,-39.28,-41.8,-41.96,-44.32,-47.12,-49.56,-47.12,-44.76,-41.92,-40.48,-45.24,-47.56,-47.84,-44.36,-42.28,-44.44,-41.72,-46.12,-45.04,-44.68,-43.24,-39.64,-38.8,-36.28,-33.2,-30.6,-31.96,-25.8,-24.44,-22.48,-20.4,-17.28,-19.76,-18.76,-19.76,-19.24,-14.2,-10.36,-6.32,-1.04,-0.36,0.92,5.12,8.8,8.04,6.52,5.16,3.64,1.36,5.56,5.44,8.12,6.64,4.16,3.12,2.72,3.16,3.04,-5.56,-7.92,-9.4,-11.84,-14.04,-14.8,-13.76,-15.04,-13.44,-11.96,-12.84,-11.88,-13.44,-13.52,-13.48,-13.92,-15.24,-16.32,-16.44,-17.16,-13.04,-11.36,-10.4,-8.72,-10.48,-9.8,-8.48,-5.88,-7.76,-10.12,-15.6,-12.92,-13.36,-9.48,-9.64,-10.24,-9.36,-10.68,-6.68,-5.08,-5.64,-4.8,-8.68,-8.96,-10.48,-9.92,-8.24,-7.48,-8.6,-9.28,-8.4,-2.76,-1.52,1.12,-0.4,-2.64,-4.64,-1.24,-5.52,-7.92,-13.44,-14.88,-11.24,-7.04,-6,-3.64,-2.36,-0.64,-1.08,0.96,2.56,0.48,-0.6,-1.12,0.56,0.16,1.12,2.24,3.96,9.4,15.52,20.76,23.8,21.2,17.48,16.28,20.76,22.44,26.44,24.68,27.2,27,33.48,38.6,42.64,38.76,37.76,38.28,38.4,36.04,34.64,28.64,19.72,10.92,-0.64,-6.64,-12,-12.72,-14.72,-17.76,-19.84,-16.28,-18.16,-19.64,-17.96,-19.24,-17.36,-19.4,-20.8,-20.44,-18.64,-19.32,-15.4,-13.56,-12.56,-18.08,-16.96,-17.52,-14.88,-14.24,-14.36,-18.44,-17.76,-19.44,-16.92,-14.84,-9.8,0.16,17.24,38.56,75.8,111,149.76,186.48,220.52,245.52,267.16,283.4,288.08,273.32,245.48,217.8,194.84,176.16,148.8,116.12,88.04,71.92,50.84,38.8,20.64,3,-10.12,-18.64,-25.6,-33.32,-39.16,-44.6,-49,-52.64,-51.8,-53.96,-55.16,-55,-57.48,-57.32,-55.88,-53.68,-52.64,-53.28,-52.92,-55.24,-51.04,-50.04,-49.24,-51.56,-52.72,-52.6,-53.32,-51.44,-53.16,-54.8,-55.76,-54.28,-53.08,-49.28,-49.84,-51.56,-52.44,-54.32,-55.24,-56.04,-55.64,-52.6,-55.16,-56.76,-51.96,-48.64,-49.48,-52.44,-53.76,-56.6,-54.52,-51.44,-51.4,-48.96,-52.6,-52.44,-51.2,-49.04,-48.12,-48.76,-47.6,-44.44,-42.96,-39.92,-38.84,-40.56,-37.32,-34.64,-31.4,-25.44,-24.32,-24.36,-23.12,-19.68,-16.08,-13.6,-13.72,-12.28,-14.72,-13.48,-8.36,-6.28,-5.52,-3.16,0.04,-0.08,3.8,5.84,10.44,5.24,4.08,-2.04,-3.08,-2.08,-5.04,-7.32,-4.04,-6.12,-7.48,-6.12,-6.68,-3.28,-5.4,-8.72,-11.72,-12.88,-17.64,-22.56,-23.28,-23.52,-23.24,-25.36,-24.48,-23.88,-21.24,-18,-18.2,-18.68,-15.52,-11.84,-15.6,-14.68,-11.92,-9.48,-9.56,-12.8,-13.16,-12.68,-8.32,-6.32,-6.52,-5.8,-5.6,-6.96,-8.72,-9.96,-9.04,-6.68,-6.8,-4,-1.32,4,2.52,3.68,3.56,6.04,6.16,6.76,5.08,2.92,-1.04,-0.84,-0.04,4.6,4.4,4.68,2.48,1.04,4.4,8.68,4.16,6.2,3.04,2.36,5.56,7.6,8.24,10.44,10.32,9.88,13.36,14.6,15.08,13.6,14.88,11.48,13.08,13.64,13.96,12.48,19.36,26.88,36.2,40.16,38.4,34.36,28.76,26.04,28.16,33.6,34.36,36.96,33.36,33,38.76,44.28,49.72,46.8,45.16,41.08,42.6,39.72,35.08,26.72,18.64,7.36,0.6,-2.84,-3.16,-5.44,-8.84,-8.84,-5.68,-2.72,-1.2,-3.88,-10.52,-10.88,-14.04,-9.36,-9.08,-11.52,-11.84,-15,-9.6,-5.68,-5.24,-6.16,-7.68,-9.52,-7.08,-5.68,-5.8,-8.84,-12.56,-17.84,-17.48,-12.72,-9.24,0.72,18.36,42.36,78.88,119.16,158.72,201.16,236.12,261.04,283.52,297.32,286.84,256.8,230.44,208.32,192,176.12,148.84,117.32,95.08,79.76,68.48,49.52,28.2,12.16,-0.24,-11.24,-19.48,-26.72,-34.88,-39.8,-43.88,-43.52,-50.8,-53.44,-55.8,-54.64,-55.92,-57.96,-55.32,-52.52,-51.08,-52.36,-53.68,-54.72,-54.08,-50.08,-53.6,-54.08,-55.4,-56.2,-51.76,-52.08,-54.6,-56,-54.64,-52.92,-48.28,-46.44,-49,-51.04,-53.2,-55.4,-53.8,-49.52,-50.84,-49.96,-50.36,-49.8,-48.28,-45.4,-45.16,-47.8,-49.12,-49.16,-45.28,-46.4,-45.8,-45.52,-47.64,-46.6,-44,-40.64,-40.08,-37.16,-38.88,-39.44,-34.76,-33.8,-29.96,-32,-31.44,-30.2,-24.36,-19.4,-18.84,-15.36,-11.8,-8.92,-3.8,0.48,-0.64,-0.44,2.32,4.4,6.6,10.24,11.4,12.36,11.52,10.6,10.32,14.56,12.48,9.8,4.84,4.48,4.48,4.2,1.64,0.4,-1.68,-3.92,-3.44,-2,-3.08,-5.16,-7.72,-8.92,-12.4,-11.16,-11.6,-14.96,-16.92,-19.6,-15.52,-12.64,-10.8,-12.12,-16.8,-17.92,-14.64,-16,-15.36,-17.2,-16.76,-18.48,-16.8,-16.08,-17.16,-17.36,-16.56,-15.04,-12,-13.24,-15.84,-16.88,-17.2,-17.12,-20.04,-16.76,-15.2,-17.12,-16.16,-17.44,-12.84,-9.56,-9.4,-9.4,-13.84,-13.8,-14.2,-15.24,-16.12,-13.64,-14,-12.96,-14.12,-13.6,-13.92,-11.6,-13.32,-11.96,-10.68,-9.68,-8.68,-9.04,-10.16,-11.04,-4.16,-2.24,0.52,-0.36,-2.16,-2.32,-3.36,-3.08,-3.32,-0.88,-1.08,-3.76,-1.92,2.52,5.68,5.6,2.52,0.04,0.64,0.72,5.08,3.84,6.24,11.52,16,21.28,25.76,23.16,19.32,15.2,22.12,28.4,31.08,31.36,31.92,28.72,31.04,36.28,40.8,41.32,36.88,36.48,36.52,37.28,35.44,32.88,28.48,23.72,17.2,10.08,-1.48,-13,-19.52,-19,-18.64,-19,-18.84,-17.96,-20.84,-22.44,-23.84,-18.68,-19.12,-18.08,-21.64,-23.32,-23.92,-21.48,-18.84,-17.08,-15.76,-14.84,-16.92,-14.52,-13.84,-14.44,-16.84,-18.72,-18.44,-17.24,-19.68,-22.08,-24.16,-23.4,-17.08,-2.12,18,44.56,78.36,112.96,156.6,194.8,228.32,253.68,275.28,287.76,284.84,268.72,241.12,215.32,197.64,176.24,148.96,120.36,97.96,83.52,69.04,53.44,35.84,18.28,8.36,-5.56,-18.36,-28.2,-35.04,-38.52,-42.88,-45.4,-51.88,-55.36,-52.96,-52.6,-54.32,-54.8,-54.8,-51,-49.16,-44.44,-46.16,-47.64,-47.8,-48.32,-47.08,-45.68,-45.28,-50.04,-49.8,-50.32,-46.48,-43.96,-43.2,-46.44,-46.16,-46.56,-42.6,-42.12,-41.76,-45.32,-49,-51.64,-51.16,-49.36,-46.12,-46.08,-47.08,-48.32,-48.04,-48.48,-50.32,-48.72,-50.36,-51,-51.88,-51.44,-49.96,-51.16,-54,-48.84,-43.88,-40.12,-39.88,-41.24,-40.08,-35.52,-31.32,-28.04,-31.96,-33.28,-30.84,-29.04,-24.08,-19,-10.88,-3.92,-3.48,-4.84,-2.88,2.16,5.72,9.12,8.12,6.52,8.28,8.28,9.72,10.6,8.72,10.92,10.04,14.04,15.12,11.16,5.96,2.44,2.68,3.72,2.92,0.76,-4.36,-7.12,-4.4,-1.76,-1.88,-5.16,-4.52,-5.88,-3.72,-5.24,-3.8,-6.32,-7.64,-9.8,-7.04,-7.92,-8.28,-6.48,-5.6,-3,-2.52,-1.12,-3.16,-5.84,-6.92,-4.88,-4.48,-2.68,-5.88,-7.84,-10.12,-10.4,-6.72,-5.24,-3.76,-7.08,-9.16,-9.64,-9.04,-6.12,-5.8,-8.8,-11.8,-11.6,-10.04,-9.44,-7.76,-6.2,-7.68,-10,-9.08,-9.56,-11.92,-10.96,-13.56,-10.76,-11.88,-10.8,-9.08,-9.96,-11.36,-8.64,-3.8,2.16,4.76,1.88,0.88,-0.32,0.8,1.96,1.68,-3,-1.56,-2.64,0.08,0.84,4.56,3.44,4.08,3.56,3.76,4.68,4.04,2.36,2.64,5.32,10,16.28,17.76,21.44,19,16.8,18.2,20.64,23.88,27,28.36,26.56,29.88,34.6,36.4,34.92,34.48,33.08,31.64,32.56,32.04,30.6,30.08,27.08,20.36,11.48,-2.12,-12.24,-18.4,-21.96,-20.6,-20.08,-19.36,-19.2,-19.64,-17.04,-16.88,-18,-18.72,-20.52,-19.92,-20.96,-22.4,-23.2,-22.8,-23.24,-22.48,-19.2,-17.76,-14.28,-13.12,-18.2,-17.8,-20.56,-19.24,-20.04,-20.48,-26.04,-28.72,-29.16,-24.44,-9.88,5.6,29.28,55.36,90.16,131.68,172.8,211.4,244.76,270.64,288.36,293.6,283.12,257.8,235.72,210.4,184.24,155.32,120.16,88.68,71.96,64.68,52.08,30.76,14.52,2.72,-7.52,-16.76,-28.96,-36.52,-37.96,-40.96,-46.12,-53.52,-54.24,-56.96,-55.84,-56.2,-60.48,-62.32,-60.76,-59.24,-55.36,-55.92,-57.56,-56.68,-57.08,-56.68,-56.6,-58.24,-58.2,-62.68,-61.04,-58.88,-56.08,-55.52,-54.48,-53.08,-55.68,-51.68,-49.72,-47.84,-51.16,-54.68,-58.56,-56.24,-53.6,-55.32,-53.32,-51.92,-49.92,-51.64,-52.4,-53.36,-52.2,-56.16,-54.64,-55.2,-53.2,-53.92,-53.28,-56.04,-56.8,-54.68,-49.8,-47.56,-48.28,-49.28,-43.96,-40.12,-37.44,-37.84,-36.8,-35.52,-33.44,-30.12,-27.08,-26.32,-26.72,-26.04,-25.52,-21.96,-15.84,-14.6,-12.32,-12.56,-11.84,-7.44,-2.44,-3.24,-3.4,-2.52,-0.8,-1.2,-4.2,-4.04,-8.08,-9.12,-7.08,-8.84,-6.56,-8.64,-9.88,-13.24,-11.08,-10.24,-11.6,-11.92,-13.76,-20.32,-21.12,-18.12,-17.16,-15.76,-17.32,-18.24,-19.52,-14,-10.96,-10.28,-13.6,-15,-19.92,-16.56,-15.56,-14.76,-16,-19.08,-22.04,-17.24,-12.72,-13.12,-13.08,-15.36,-14.68,-13.32,-11.16,-12.68,-12.64,-13.76,-17,-14.08,-16.08,-12.28,-14.84,-12.08,-12.04,-9.4,-9.8,-6.4,-8.08,-10.48,-8.64,-8.8,-5.2,-8.2,-8.16,-9.32,-10.24,-7.72,-6.8,-3.08,-3.96,-4,-2.76,-2.28,-2.28,3.16,1.48,1.92,3.08,6.76,8.56,9.04,7.52,5.08,5.08,4.88,7.88,9.12,9.72,7.96,6.56,13.68,18.2,21.08,24.4,24.28,25.44,29.56,25.96,26.44,29.48,32.84,35.32,39.32,42.92,45,46.68,48.68,52,51.72,47.88,45.08,42.64,40.2,36.16,31.52,23.96,13,0.68,-4.24,-7.48,-5.68,-6.4,-6.4,-10.08,-6.88,-9.32,-9.84,-7,-7.44,-9.84,-12.68,-10.96,-12.12,-8.6,-6.68,-6.16,-4.16,-8.76,-5.52,-5.08,-4.76,-6.88,-8.36,-11.72,-8.76,-9,-13.16,-12.4,-11.48,1.04,20.84,52.12,87.4,124,162.36,201.24,234.68,262.56,278.64,290.56,287.36,267.24,241.04,217.72,197.72,178.28,151.56,122.16,97.48,83.36,68.12,48.32,30.44,11.56,1.2,-7.92,-14.88,-26,-36,-40.32,-44.2,-44.84,-47.64,-50.88,-55.24,-58.32,-57.28,-55.12,-54.56,-51.64,-52.84,-52.24,-50.52,-49.08,-49,-49.8,-50.6,-51.88,-51.48,-49.68,-50.4,-52.16,-52.32,-50.44,-48.56,-45.8,-46.4,-45.44,-47.92,-48.8,-45.72,-47.16,-50.52,-52.68,-54.28,-54.08,-52.44,-50.76,-50.68,-47.68,-51.28,-51.4,-51.08,-47,-48.84,-51.16,-53.52,-53.8,-51.56,-48.52,-47.72,-48.16,-47.8,-42.8,-39.32,-36.44,-36.08,-36.2,-37.44,-39.92,-37.84,-33.44,-32.84,-34.16,-31.96,-26.6,-21.32,-21.12,-14.44,-12.52,-10,-5.16,-3.8,-1.48,-0.2,-0.48,-1.8,0.28,1,5.04,5.28,2.12,6.56,6.08,6.84,8.76,7.36,2.96,-3.28,-5.4,-6.84,-6.88,-7.84,-9.6,-11.28,-14.24,-11.08,-7.52,-8.64,-9.8,-14.12,-15.32,-14.48,-13.52,-13.76,-14.72,-15.56,-16.2,-13.92,-9.8,-13.56,-13.12,-13.4,-13.56,-12.2,-13.48,-14.72,-16.92,-18.64,-23.12,-20.28,-17.12,-15.72,-17.64,-18.28,-17.16,-17.32,-13.6,-13.16,-16.24,-16.4,-16.68,-16.64,-16.2,-16.44,-19.24,-17.68,-15.6,-12.32,-9.56,-8.64,-8.92,-9.4,-11.52,-10.8,-12.48,-12.4,-14.08,-13.44,-14.32,-8,-7.72,-6.72,-7.88,-4.44,-3.28,-0.4,1.76,-0.2,-0.8,0,-2.24,1.12,1.36,-0.36,-0.08,0.24,-1.64,3.72,10.76,12.76,13.56,18.04,20.76,20.8,20.8,19.84,19.68,22.84,27.6,31.6,40.44,42.68,44.8,43.84,43.6,43.88,45.32,41.4,39.52,32.68,30.68,26.68,20.4,9.56,0.44,-9,-10.96,-10,-10.28,-11.96,-12.4,-15.24,-16.28,-15.2,-14.24,-15.16,-17.24,-17.08,-14.16,-10.8,-9.92,-10.76,-10.96,-11.68,-9.12,-7,-7.12,-9.04,-9.04,-12.92,-15.84,-14.88,-14.12,-11.76,-7.68,5.6,33.4,70.56,105.12,145.32,182.2,218.36,247.32,272.44,291.56,289.68,265.56,241.04,215.04,199.36,180.04,150.44,116.24,92.52,78.44,63.64,45.8,24.16,9.24,-8.36,-23.6,-30.2,-32.32,-37.92,-41.16,-50.76,-53.88,-53.68,-53.76,-56.72,-58.48,-58.24,-60.28,-51.96,-50.4,-47.16,-48.16,-48.76,-50.12,-47.96,-47.12,-48.96,-48.88,-51.68,-54.2,-51.76,-50.52,-50.84,-50,-46.76,-48.64,-42.4,-43.84,-45.52,-48.68,-48.44,-49.4,-48.32,-47.92,-49.4,-49.04,-50.56,-44.88,-42.68,-41.64,-43.24,-44.76,-46.32,-46.64,-44.56,-42.8,-43.64,-42.16,-44.4,-44,-38.52,-32.96,-29.8,-28.84,-29.76,-31.04,-29.84,-24.56,-24.88,-25.88,-30.28,-30.4,-24.76,-18,-14.48,-8.12,-7.76,-5.76,0.04,7.4,8.72,9.12,5.76,3.2,4.16,3.6,3.28,4.8,3.96,4.72,8.56,8.84,8.12,3.92,3.36,-0.28,-0.56,-4.16,-9,-10.44,-14.56,-13.2,-13.16,-8.68,-5.68,-6,-7.64,-8.72,-7.24,-3.84,-5.16,-9.6,-14.4,-17.8,-14.8,-13.36,-13.12,-10.44,-14.32,-10.6,-7.28,-6.44,-5.92,-7.4,-11.72,-13.2,-14.2,-13.8,-13.84,-16.6,-15.8,-14.52,-8.84,-3.32,-2.88,-5.04,-6.6,-8.96,-11.44,-13,-13.84,-15.44,-16.48,-18.36,-15.64,-10.44,-6.72,-5.24,-7.92,-9.12,-7.88,-8.32,-9.72,-10.24,-14.12,-15.64,-16.08,-13.28,-12.68,-11.56,-10.72,-6.28,-5.56,-1.92,-2.24,-1.32,-1.12,-4.16,-2.6,-2.08,-1.52,0.08,0.68,4.76,10.52,18.84,19.84,21.92,24.48,22.16,22.44,22.96,27,27.88,30.76,29.68,35.48,37.96,43.48,42.84,42.72,42.64,42.72,41.32,40.72,35.36,29.52,20.4,13.28,1.96,-4.08,-9.4,-9.76,-13.36,-12.56,-10.68,-13.52,-12.8,-15.48,-16.68,-15.64,-15.88,-15.88,-16.08,-15.16,-12.48,-10.84,-8.6,-9.48,-7.6,-11.36,-9.84,-7.56,-5.8,-5.64,-5.8,-10.84,-15.08,-16.4,-13.6,-11.92,-5.64,4.48,21.48,52.52,87.04,122.36,166.36,204.6,240.56,269.32,286.04,287.84,269.88,241.6,216.04,199.16,182.08,155.16,125.92,102.44,89.68,80.72,64.68,44.6,24.6,8.56,-4.2,-13.68,-20.24,-28.76,-37.72,-43.52,-43.8,-45.72,-47.64,-49.56,-52.4,-58.36,-54.32,-51.84,-47.88,-46.4,-49.16,-47.72,-49.88,-46.88,-45.52,-44.44,-48.32,-50.08,-50.8,-49.92,-46.84,-48.44,-45.2,-45.52,-44.04,-42.36,-40.2,-40.92,-42.36,-46.2,-47.08,-48.92,-45.76,-47.8,-48.72,-49.36,-49.04,-47.84,-44.36,-44.68,-44.32,-43.96,-47.44,-46.48,-45.4,-48.28,-47,-47,-46.04,-44.84,-40.52,-38.32,-35.8,-32.04,-30.56,-26.24,-21.84,-22.04,-23.2,-24.4,-27,-21.44,-17.8,-15.76,-14.52,-16.6,-12.44,-9,-2.52,-1.6,-1,-0.48,0.68,1.4,4.64,5.36,4.32,1.56,2.4,3.56,5.4,8.56,3.96,2.4,-0.64,-0.88,-2.48,-3.44,-4.8,-8.92,-6.84,-5.6,-6.64,-8.28,-11.12,-12.8,-11.24,-8.8,-10,-12.28,-13.8,-18.56,-19.76,-18.92,-14.84,-11.48,-15.28,-15.8,-17.68,-15.52,-15.08,-14.6,-16.68,-15.92,-18.64,-17.68,-17.16,-17.68,-20,-20.92,-20.96,-18.48,-16.76,-17.44,-17.92,-21.44,-19.44,-17.88,-16.64,-17.56,-18.96,-19.44,-18.76,-15.8,-13.76,-13.32,-13.48,-14.04,-17.48,-14.24,-14.44,-12.8,-15.44,-17.28,-18.68,-16.36,-16,-15.24,-16.08,-14.8,-17.8,-17.04,-14,-11.64,-9.44,-11.52,-13.4,-8.92,-5.96,-2.52,-2.64,-4.88,-5.52,-3.6,-3.84,-6.84,-1.52,-3.08,-1.04,7.88,13.36,16.64,13,9.88,9.12,16.96,21.76,22.4,24.92,24.72,25.76,29.88,35.96,36.76,36.32,30.52,27.84,27.48,26.8,25.92,20.88,14.52,4.84,-3.32,-12.44,-18.04,-18.84,-20.96,-21.52,-21.44,-20.08,-19.48,-18.88,-20.88,-22.72,-19.28,-19.04,-16.08,-20.16,-21.56,-21.36,-19.84,-16.32,-13.32,-13.72,-15.2,-15.6,-13.8,-14.8,-13.28,-11.84,-13.84,-18.88,-19.36,-18.36,-15.68,-7.04,2.96,25.64,60.04,90.6,119.52,149.64,181.24,213.76,243.84,267.8,279.52,274.72,256.48,227.2,203.12,182.68,153.44,123.2,91.24,75.44,65.84,50.52,32.8,13.12,-1.16,-9.96,-16.24,-22.6,-27.68,-35.92,-40.32,-42.76,-45.12,-45.04,-47.36,-48.52,-51,-53.12,-50.8,-48.92,-47.24,-45.64,-44.84,-46.2,-42.92,-44.32,-43.6,-47.56,-47.76,-48.96,-44.6,-41.52,-41.88,-45.76,-46.64,-43.72,-40.84,-41.28,-39.96,-41.16,-42.24,-42.44,-45.84,-41.04,-43.6,-43.56,-45.84,-46.76,-43.72,-40.96,-41.08,-41.52,-43.16,-43.4,-41.64,-41.92,-42.16,-44.28,-47.88,-46.96,-44.44,-37.36,-36.24,-34.24,-34.28,-32.72,-33.56,-30.32,-29.12,-31.44,-29.88,-30.24,-29.48,-26.28,-24.08,-25.08,-21.72,-19.48,-13,-9.08,-7.76,-3.4,-3.24,-2.88,-0.44,3.16,5,5.08,0.88,0.32,2.16,7.88,6.2,7.72,2.76,-0.36,5.08,4.64,-0.56,-2.8,-6.88,-9.36,-7.6,-9.12,-6.88,-8.04,-5.56,-5.08,-4.28,-1.6,-6.68,-7.96,-9.04,-8.16,-8.32,-6.8,-10.96,-12.2,-11.88,-10.04,-6.92,-6.52,-3.84,-7.04,-6.2,-9.64,-8.04,-6.6,-8.96,-8.76,-15,-16.28,-10.16,-10.48,-8.32,-8.88,-8.08,-8.28,-4.64,-2.12,-5.32,-8.72,-10.88,-12.8,-11.16,-9.6,-11.48,-10.64,-11.36,-10,-6.36,-3.6,-5.92,-6.48,-8.56,-9.84,-9.24,-9.44,-10.96,-11.36,-12.2,-12.08,-8.72,-4.48,-4.56,-2.56,-1.72,-2.32,0.76,1.48,1.24,-1.04,-0.12,0.24,1.56,5.2,6.56,6.88,12.56,17.36,23.84,26.56,20.24,17.48,14.68,19.72,27.08,31.08,31.16,30.6,32.84,35.8,40.4,42.08,40.56,39.28,34,31.4,33.4,28.24,21.8,13.96,0.28,-9.32,-16.24,-14.28,-13.48,-13.76,-16.2,-15.64,-11.8,-14.48,-14.36,-14.28,-16.68,-18.56,-16.32,-15.08,-13.76,-11.84,-11.88,-12.08,-9.6,-9.08,-11.36,-11.8,-11.76,-10.56,-10.16,-9.16,-9.84,-14.56,-17.32,-17.28,-11.44,3.28,19.88,46.44,76.2,106.64,146.6,184.8,220.32,246.6,266.92,283.24,293.36,284.48,259.32,233.24,210,190.52,169.28,141.76,114.84,94.24,80.08,69.28,53.64,38,20.44,8.72,-5.32,-17.28,-26.68,-33.16,-39.2,-42.6,-47.28,-53.88,-55.24,-55.08,-56.84,-55.48,-57.28,-59.12,-55.56,-49.64,-52.68,-52.16,-53.44,-52.92,-51.12,-50.84,-49.28,-51.2,-52.88,-54.68,-52.6,-52.64,-49.04,-50.92,-48.96,-50.44,-47.6,-45,-48.08,-49.2,-53.32,-53.92,-51.52,-49.32,-51.08,-50.16,-51.28,-49.28,-45.28,-47,-47.12,-49.4,-51.48,-52.48,-51.92,-48.72,-47.08,-48.92,-49.6,-47.76,-44,-42.04,-39.96,-39.52,-39.72,-40.16,-36.36,-34.52,-31.8,-32.4,-30.72,-30.48,-23.48,-22.92,-19.64,-19.44,-19.52,-15.36,-13.16,-6.24,-6.92,-7.4,-8.52,-8.84,-6.44,0.16,1.24,5.04,8.16,9.24,12.08,12.36,13.68,10.24,5.04,1.28,0,-0.88,-0.84,-2.64,-3.96,-1.84,-2.2,0.08,-0.56,-1,-3.72,-9.2,-8.6,-6.08,-9.16,-11.76,-15.6,-13.36,-7.68,-7.6,-6.88,-7.56,-7.28,-7.72,-10.64,-10.32,-10.68,-14.36,-16.6,-20.44,-19.88,-14.12,-16.6,-14.6,-14.8,-16.56,-14.44,-13.84,-13.6,-15.32,-17.56,-21.28,-19.64,-18.48,-17.88,-16.96,-14.24,-16.12,-12.56,-9.4,-9.24,-10.64,-11.32,-11.08,-14.36,-14.08,-15.52,-16.16,-15.56,-15.84,-12.36,-11.4,-9.76,-9,-9.28,-8.68,-4.28,-3.84,-4.56,-3.88,-7.92,-5.56,-2.2,-1.12,-1.28,-0.88,-2.28,-0.76,3.84,4.52,3,3.36,-1.48,-0.72,0.56,1.32,6.12,10.52,14.88,18.8,22.64,21.6,17.88,17.48,18.8,18.12,26.08,26.64,30.92,31.8,31.64,33.12,38.4,43.12,42.2,39.52,33.76,32.32,28.52,26.76,22.84,9.56,-1.88,-10.92,-13.24,-12.96,-13.56,-12.8,-17.6,-18.28,-19,-16.56,-15.12,-16.76,-19.76,-21.96,-19.56,-15.72,-15.92,-16.44,-16.16,-15.4,-12.44,-12,-10.52,-12.12,-12.6,-12.2,-12.4,-9.8,-11.4,-14.36,-17.4,-20,-12.84,-5,10.08,31.6,58.24,89.8,128,167.48,204.32,238,258.68,276.8,282.8,272,248.52,220.44,197.76,176.2,152.8,123.56,97.84,81.64,67.56,47.36,28.04,18.12,4.28,-7.32,-19.8,-27.68,-35.36,-35.88,-42.24,-46.4,-51.96,-54.32,-53.8,-55.2,-51.6,-53.56,-55.32,-57.28,-54.08,-50.12,-47.8,-47.2,-46.52,-47.88,-48.68,-47.52,-48.04,-47.32,-48.84,-49.92,-47.96,-45.96,-47.56,-43.64,-45.32,-43.64,-42.04,-42.44,-43.12,-45.64,-49.72,-47.8,-46,-47,-44.88,-47.56,-50.24,-51.36,-46.24,-44.64,-42.84,-42.24,-46.84,-47.4,-47.64,-45.88,-41.96,-44.84,-44.68,-44.24,-39.96,-36.32,-33.16,-33.52,-30.72,-29.2,-26.8,-27.48,-27.76,-23.96,-22.04,-19.76,-17.64,-10.24,-7.96,-3.52,-3.76,-0.04,3.48,5.64,5.8,2.56,0.68,2.16,4.72,9.2,8.08,9.8,5.92,6.4,10.92,12.4,11.12,6.68,4.08,-0.2,-2.8,-4.84,-5.48,-7.12,-8.44,-8,-5.48,-1.48,-3.48,-6.76,-8.88,-7.16,-5.64,-4.84,-8,-11.8,-16.24,-18.88,-15.32,-10.84,-9.28,-9,-8.04,-10.36,-9.84,-8.28,-11.84,-14.12,-17.24,-21.52,-21.44,-18.68,-18.28,-19.84,-16.28,-13.92,-9.16,-10.48,-12,-12.32,-14.84,-20.12,-19.36,-16.64,-15.64,-16.72,-18.2,-16.84,-12.24,-10.92,-10.04,-10.32,-12.76,-16.04,-8.6,-12.92,-12.12,-13.32,-17.28,-19.44,-18.2,-12,-11.2,-10.48,-12.08,-8.6,-6.12,-4.2,-1.24,-1.08,-2.72,-4.6,-3.92,-1.52,-2.16,-0.44,1.28,-0.08,2.16,1.64,3.12,1.76,-0.36,0.08,4.72,5.88,6.68,7.44,5.28,11.64,17.8,23,20.8,19.32,16.64,21.24,24.92,31.28,33.04,32.2,32.28,33,35.72,38.08,38.4,38.72,37.72,34.28,35.68,36.24,30.96,23.44,12.36,3.6,-6.36,-11.76,-14.96,-17.36,-18.12,-15.64,-12.8,-13.28,-16.76,-16.04,-17.24,-17.8,-16.12,-16,-16.72,-18.12,-18.32,-20.76,-17.68,-14.24,-13.28,-11.72,-12.12,-11.36,-11.76,-8.4,-10.6,-11.36,-11.96,-16.44,-14.68,-14.24,-11,-5.28,4.72,27.24,57.84,91.64,126.44,164.84,202.68,235.04,264.48,286.04,294.84,287.68,265.96,240.96,219.72,202.32,177.24,143.24,111.24,87.64,75.44,63.8,45.36,24.12,8.92,-4.08,-10.16,-18.32,-26.36,-32.72,-39.8,-43.96,-45.12,-47.88,-51.08,-56.68,-57.12,-56.56,-53.96,-53.16,-49.48,-50.48,-50.64,-52.2,-48.44,-45.6,-46.72,-46.44,-51.76,-53.6,-53.32,-48.08,-46.48,-44.56,-46.04,-46.16,-46.4,-47.12,-46.2,-46.16,-45.36,-47,-47.4,-50.4,-45.96,-46.36,-49.28,-47.04,-48.2,-45.16,-45.28,-46.04,-46.08,-47.92,-47.24,-46.08,-47.36,-47.32,-49.6,-51.08,-47.16,-45.08,-43.12,-44.2,-42.24,-40,-36.24,-34.28,-33.32,-31.24,